-4.086021505376319141e+01
-3.655913978494599093e+01
-3.655913978494599093e+01
-4.086021505376319141e+01
-3.225806451612878334e+01
-3.655913978494599093e+01
-3.655913978494599093e+01
-3.225806451612878334e+01
-3.225806451612878334e+01
-3.225806451612878334e+01
-3.225806451612878334e+01
-3.225806451612878334e+01
-3.225806451612878334e+01
-3.225806451612878334e+01
-3.225806451612878334e+01
-2.795698924731158286e+01
-3.225806451612878334e+01
-3.225806451612878334e+01
-3.225806451612878334e+01
-3.655913978494599093e+01
-3.225806451612878334e+01
-2.795698924731158286e+01
-3.225806451612878334e+01
-3.225806451612878334e+01
-4.086021505376319141e+01
-4.086021505376319141e+01
-3.655913978494599093e+01
-4.516129032258039899e+01
-4.086021505376319141e+01
-4.946236559139759947e+01
-4.946236559139759947e+01
-4.086021505376319141e+01
-4.516129032258039899e+01
-4.516129032258039899e+01
-4.516129032258039899e+01
-4.946236559139759947e+01
-4.516129032258039899e+01
-4.516129032258039899e+01
-4.946236559139759947e+01
-4.946236559139759947e+01
-4.946236559139759947e+01
-4.946236559139759947e+01
-5.376344086021480706e+01
-5.376344086021480706e+01
-5.376344086021480706e+01
-5.376344086021480706e+01
-4.946236559139759947e+01
-4.946236559139759947e+01
-5.806451612903200754e+01
-5.376344086021480706e+01
-4.946236559139759947e+01
-5.376344086021480706e+01
-4.946236559139759947e+01
-5.376344086021480706e+01
-5.376344086021480706e+01
-5.376344086021480706e+01
-4.946236559139759947e+01
-4.946236559139759947e+01
-5.376344086021480706e+01
-4.946236559139759947e+01
-5.376344086021480706e+01
-4.946236559139759947e+01
-5.376344086021480706e+01
-4.946236559139759947e+01
-4.946236559139759947e+01
-4.516129032258039899e+01
-4.946236559139759947e+01
-4.946236559139759947e+01
-4.946236559139759947e+01
-4.516129032258039899e+01
-4.516129032258039899e+01
-4.086021505376319141e+01
-2.795698924731158286e+01
-2.795698924731158286e+01
-2.365591397849437882e+01
-1.075268817204276495e+01
-1.075268817204276495e+01
-1.075268817204276495e+01
-6.451612903225561801e+00
-2.150537634408357324e+00
-1.505376344085996898e+01
-2.795698924731158286e+01
-1.935483870967717479e+01
-2.365591397849437882e+01
-2.365591397849437882e+01
-2.795698924731158286e+01
-3.225806451612878334e+01
-4.516129032258039899e+01
-4.946236559139759947e+01
-4.946236559139759947e+01
-5.806451612903200754e+01
-5.806451612903200754e+01
-5.376344086021480706e+01
-4.946236559139759947e+01
-5.376344086021480706e+01
-4.946236559139759947e+01
-4.946236559139759947e+01
-5.806451612903200754e+01
-5.806451612903200754e+01
-6.236559139784921513e+01
-6.236559139784921513e+01
-5.806451612903200754e+01
-6.236559139784921513e+01
-8.387096774193523174e+01
-6.236559139784921513e+01
-2.150537634408357324e+00
7.956989247311851443e+01
1.870967741935486117e+02
3.419354838709679711e+02
5.010752688172045168e+02
5.741935483870969392e+02
5.655913978494626235e+02
2.946236559139787232e+02
-2.365591397849437882e+01
-2.602150537634406078e+02
-3.591397849462363183e+02
-2.688172043010749803e+02
-1.827956989247309139e+02
-1.139784946236556635e+02
-8.387096774193523174e+01
-6.236559139784921513e+01
-4.516129032258039899e+01
-3.225806451612878334e+01
-3.225806451612878334e+01
-4.086021505376319141e+01
-3.225806451612878334e+01
-2.795698924731158286e+01
-2.795698924731158286e+01
-3.655913978494599093e+01
-3.655913978494599093e+01
-3.225806451612878334e+01
-2.795698924731158286e+01
-2.795698924731158286e+01
-2.365591397849437882e+01
-2.365591397849437882e+01
-2.365591397849437882e+01
-1.935483870967717479e+01
-1.935483870967717479e+01
-1.935483870967717479e+01
-2.365591397849437882e+01
-1.505376344085996898e+01
-1.935483870967717479e+01
-1.505376344085996898e+01
-1.075268817204276495e+01
-1.505376344085996898e+01
-1.505376344085996898e+01
-1.075268817204276495e+01
-6.451612903225561801e+00
-1.075268817204276495e+01
-2.150537634408357324e+00
-2.150537634408357324e+00
-2.150537634408357324e+00
2.150537634408846710e+00
2.150537634408846710e+00
2.150537634408846710e+00
6.451612903226050300e+00
1.075268817204325522e+01
1.505376344086045926e+01
1.935483870967766151e+01
2.365591397849486555e+01
2.365591397849486555e+01
2.795698924731206958e+01
2.795698924731206958e+01
2.795698924731206958e+01
3.225806451612927361e+01
3.225806451612927361e+01
3.655913978494648120e+01
4.086021505376368168e+01
3.225806451612927361e+01
3.225806451612927361e+01
3.225806451612927361e+01
2.365591397849486555e+01
2.795698924731206958e+01
2.365591397849486555e+01
2.365591397849486555e+01
1.935483870967766151e+01
1.075268817204325522e+01
6.451612903226050300e+00
2.150537634408846710e+00
-2.150537634408357324e+00
-6.451612903225561801e+00
-1.505376344085996898e+01
-2.365591397849437882e+01
-2.795698924731158286e+01
-3.655913978494599093e+01
-3.655913978494599093e+01
-4.086021505376319141e+01
-4.086021505376319141e+01
-4.516129032258039899e+01
-4.946236559139759947e+01
-4.516129032258039899e+01
-4.946236559139759947e+01
-4.516129032258039899e+01
-4.946236559139759947e+01
-4.946236559139759947e+01
-4.946236559139759947e+01
-4.946236559139759947e+01
-4.946236559139759947e+01
-4.946236559139759947e+01
-4.516129032258039899e+01
-4.516129032258039899e+01
-4.516129032258039899e+01
-4.086021505376319141e+01
-4.516129032258039899e+01
-4.516129032258039899e+01
-4.086021505376319141e+01
-4.516129032258039899e+01
-4.086021505376319141e+01
-4.516129032258039899e+01
-4.516129032258039899e+01
-4.516129032258039899e+01
-4.516129032258039899e+01
-4.086021505376319141e+01
-4.086021505376319141e+01
-4.516129032258039899e+01
-4.086021505376319141e+01
-4.516129032258039899e+01
-4.086021505376319141e+01
-4.516129032258039899e+01
-4.946236559139759947e+01
-4.086021505376319141e+01
-4.946236559139759947e+01
-4.946236559139759947e+01
-5.376344086021480706e+01
-5.376344086021480706e+01
-5.376344086021480706e+01
-5.376344086021480706e+01
-5.376344086021480706e+01
-6.236559139784921513e+01
-5.806451612903200754e+01
-6.236559139784921513e+01
-5.806451612903200754e+01
-5.806451612903200754e+01
-5.806451612903200754e+01
-5.806451612903200754e+01
-6.666666666666641561e+01
-6.236559139784921513e+01
-5.806451612903200754e+01
-6.236559139784921513e+01
-6.236559139784921513e+01
-6.236559139784921513e+01
-6.666666666666641561e+01
-6.666666666666641561e+01
-6.236559139784921513e+01
-6.236559139784921513e+01
-6.236559139784921513e+01
-5.806451612903200754e+01
-6.236559139784921513e+01
-6.236559139784921513e+01
-6.236559139784921513e+01
-5.806451612903200754e+01
-5.806451612903200754e+01
-5.376344086021480706e+01
-5.806451612903200754e+01
-6.236559139784921513e+01
-6.236559139784921513e+01
-6.236559139784921513e+01
-6.236559139784921513e+01
-5.806451612903200754e+01
-5.806451612903200754e+01
-5.376344086021480706e+01
-5.806451612903200754e+01
-5.376344086021480706e+01
-5.806451612903200754e+01
-5.376344086021480706e+01
-5.376344086021480706e+01
-5.806451612903200754e+01
-5.376344086021480706e+01
-5.806451612903200754e+01
-4.946236559139759947e+01
-5.376344086021480706e+01
-4.946236559139759947e+01
-5.376344086021480706e+01
-5.376344086021480706e+01
-4.946236559139759947e+01
-5.376344086021480706e+01
-4.946236559139759947e+01
-4.516129032258039899e+01
-4.516129032258039899e+01
-3.225806451612878334e+01
-2.795698924731158286e+01
-1.505376344085996898e+01
-1.505376344085996898e+01
-6.451612903225561801e+00
-6.451612903225561801e+00
-2.150537634408357324e+00
6.451612903226050300e+00
-6.451612903225561801e+00
-1.505376344085996898e+01
-2.365591397849437882e+01
-1.935483870967717479e+01
-1.935483870967717479e+01
-1.935483870967717479e+01
-2.365591397849437882e+01
-3.655913978494599093e+01
-4.516129032258039899e+01
-4.946236559139759947e+01
-5.376344086021480706e+01
-5.806451612903200754e+01
-5.806451612903200754e+01
-5.376344086021480706e+01
-5.376344086021480706e+01
-4.946236559139759947e+01
-4.946236559139759947e+01
-4.516129032258039899e+01
-5.376344086021480706e+01
-5.806451612903200754e+01
-6.236559139784921513e+01
-5.806451612903200754e+01
-5.806451612903200754e+01
-6.236559139784921513e+01
-7.956989247311803126e+01
-5.376344086021480706e+01
6.451612903226050300e+00
9.247311827957013008e+01
2.086021505376346283e+02
3.677419354838712025e+02
5.268817204301077481e+02
5.956989247311829558e+02
5.655913978494626235e+02
2.731182795698927066e+02
-4.086021505376319141e+01
-2.817204301075266244e+02
-3.720430107526879056e+02
-2.731182795698921950e+02
-1.870967741935481286e+02
-1.182795698924728640e+02
-7.956989247311803126e+01
-5.806451612903200754e+01
-4.516129032258039899e+01
-3.225806451612878334e+01
-3.655913978494599093e+01
-3.655913978494599093e+01
-2.795698924731158286e+01
-1.505376344085996898e+01
-2.365591397849437882e+01
-2.795698924731158286e+01
-2.795698924731158286e+01
-2.795698924731158286e+01
-2.795698924731158286e+01
-2.795698924731158286e+01
-2.365591397849437882e+01
-2.365591397849437882e+01
-1.935483870967717479e+01
-1.935483870967717479e+01
-1.505376344085996898e+01
-1.935483870967717479e+01
-1.935483870967717479e+01
-1.505376344085996898e+01
-1.075268817204276495e+01
-1.075268817204276495e+01
-1.075268817204276495e+01
-1.075268817204276495e+01
-1.505376344085996898e+01
-6.451612903225561801e+00
-6.451612903225561801e+00
-2.150537634408357324e+00
-2.150537634408357324e+00
-2.150537634408357324e+00
2.150537634408846710e+00
2.150537634408846710e+00
6.451612903226050300e+00
6.451612903226050300e+00
1.075268817204325522e+01
1.075268817204325522e+01
1.935483870967766151e+01
2.365591397849486555e+01
2.365591397849486555e+01
2.795698924731206958e+01
2.795698924731206958e+01
3.225806451612927361e+01
4.086021505376368168e+01
4.086021505376368168e+01
3.655913978494648120e+01
3.655913978494648120e+01
4.086021505376368168e+01
3.655913978494648120e+01
3.655913978494648120e+01
3.655913978494648120e+01
3.655913978494648120e+01
3.225806451612927361e+01
3.225806451612927361e+01
2.365591397849486555e+01
1.935483870967766151e+01
2.365591397849486555e+01
1.505376344086045926e+01
1.505376344086045926e+01
6.451612903226050300e+00
-2.150537634408357324e+00
-1.505376344085996898e+01
-1.075268817204276495e+01
-1.935483870967717479e+01
-2.365591397849437882e+01
-2.795698924731158286e+01
-3.225806451612878334e+01
-3.225806451612878334e+01
-3.655913978494599093e+01
-3.225806451612878334e+01
-4.086021505376319141e+01
-4.086021505376319141e+01
-4.086021505376319141e+01
-4.086021505376319141e+01
-4.086021505376319141e+01
-3.655913978494599093e+01
-3.655913978494599093e+01
-3.655913978494599093e+01
-3.655913978494599093e+01
-4.086021505376319141e+01
-3.655913978494599093e+01
-4.516129032258039899e+01
-3.655913978494599093e+01
-4.086021505376319141e+01
-3.655913978494599093e+01
-3.655913978494599093e+01
-4.086021505376319141e+01
-3.655913978494599093e+01
-3.655913978494599093e+01
-3.225806451612878334e+01
-3.655913978494599093e+01
-3.655913978494599093e+01
-3.225806451612878334e+01
-4.086021505376319141e+01
-3.225806451612878334e+01
-3.655913978494599093e+01
-3.655913978494599093e+01
-3.655913978494599093e+01
-3.655913978494599093e+01
-4.086021505376319141e+01
-4.086021505376319141e+01
-4.516129032258039899e+01
-4.086021505376319141e+01
-4.516129032258039899e+01
-4.516129032258039899e+01
-4.946236559139759947e+01
-5.376344086021480706e+01
-4.516129032258039899e+01
-5.376344086021480706e+01
-4.946236559139759947e+01
-4.946236559139759947e+01
-4.946236559139759947e+01
-4.946236559139759947e+01
-4.946236559139759947e+01
-4.946236559139759947e+01
-4.946236559139759947e+01
-5.806451612903200754e+01
-5.376344086021480706e+01
-5.376344086021480706e+01
-5.806451612903200754e+01
-5.806451612903200754e+01
-5.376344086021480706e+01
-5.806451612903200754e+01
-5.806451612903200754e+01
-4.946236559139759947e+01
-5.376344086021480706e+01
-5.806451612903200754e+01
-5.376344086021480706e+01
-5.376344086021480706e+01
-6.236559139784921513e+01
-5.806451612903200754e+01
-5.806451612903200754e+01
-5.806451612903200754e+01
-5.806451612903200754e+01
-4.946236559139759947e+01
-5.806451612903200754e+01
-5.806451612903200754e+01
-4.516129032258039899e+01
-5.376344086021480706e+01
-4.946236559139759947e+01
-5.376344086021480706e+01
-4.946236559139759947e+01
-5.376344086021480706e+01
-5.376344086021480706e+01
-5.376344086021480706e+01
-5.806451612903200754e+01
-5.376344086021480706e+01
-4.946236559139759947e+01
-5.376344086021480706e+01
-4.946236559139759947e+01
-4.516129032258039899e+01
-4.946236559139759947e+01
-4.516129032258039899e+01
-5.376344086021480706e+01
-4.946236559139759947e+01
-4.946236559139759947e+01
-5.376344086021480706e+01
-4.946236559139759947e+01
-4.946236559139759947e+01
-4.946236559139759947e+01
-4.516129032258039899e+01
-4.086021505376319141e+01
-4.086021505376319141e+01
-4.086021505376319141e+01
-3.225806451612878334e+01
-1.935483870967717479e+01
-1.935483870967717479e+01
-1.505376344085996898e+01
-2.150537634408357324e+00
2.150537634408846710e+00
6.451612903226050300e+00
1.505376344086045926e+01
-2.150537634408357324e+00
-1.075268817204276495e+01
-2.365591397849437882e+01
-1.935483870967717479e+01
-1.505376344085996898e+01
-1.935483870967717479e+01
-1.935483870967717479e+01
-3.225806451612878334e+01
-4.086021505376319141e+01
-4.946236559139759947e+01
-4.946236559139759947e+01
-5.376344086021480706e+01
-4.946236559139759947e+01
-4.086021505376319141e+01
-4.516129032258039899e+01
-4.086021505376319141e+01
-4.086021505376319141e+01
-4.516129032258039899e+01
-4.086021505376319141e+01
-4.946236559139759947e+01
-4.946236559139759947e+01
-4.516129032258039899e+01
-4.516129032258039899e+01
-5.806451612903200754e+01
-6.236559139784921513e+01
-2.365591397849437882e+01
3.225806451612927361e+01
1.225806451612905619e+02
2.387096774193550743e+02
4.236559139784948229e+02
5.612903225806453520e+02
6.430107526881722606e+02
5.268817204301077481e+02
2.043010752688174421e+02
-9.677419354838684740e+01
-3.118279569892470704e+02
-3.462365591397846742e+02
-2.774193548387094097e+02
-1.956989247311825295e+02
-1.440860215053760953e+02
-9.247311827956964692e+01
-4.946236559139759947e+01
-3.225806451612878334e+01
-2.365591397849437882e+01
-3.225806451612878334e+01
-2.365591397849437882e+01
-1.075268817204276495e+01
-1.075268817204276495e+01
-1.935483870967717479e+01
-2.365591397849437882e+01
-2.365591397849437882e+01
-2.365591397849437882e+01
-1.505376344085996898e+01
-1.505376344085996898e+01
-1.505376344085996898e+01
-1.075268817204276495e+01
-1.075268817204276495e+01
-6.451612903225561801e+00
-1.075268817204276495e+01
-6.451612903225561801e+00
-1.075268817204276495e+01
-2.150537634408357324e+00
-2.150537634408357324e+00
-2.150537634408357324e+00
2.150537634408846710e+00
2.150537634408846710e+00
2.150537634408846710e+00
2.150537634408846710e+00
6.451612903226050300e+00
-2.150537634408357324e+00
6.451612903226050300e+00
2.150537634408846710e+00
1.075268817204325522e+01
1.505376344086045926e+01
1.505376344086045926e+01
1.935483870967766151e+01
1.935483870967766151e+01
2.795698924731206958e+01
2.795698924731206958e+01
3.225806451612927361e+01
3.225806451612927361e+01
3.655913978494648120e+01
3.225806451612927361e+01
3.655913978494648120e+01
4.086021505376368168e+01
4.086021505376368168e+01
4.516129032258088927e+01
4.516129032258088927e+01
4.086021505376368168e+01
3.655913978494648120e+01
3.655913978494648120e+01
3.655913978494648120e+01
3.655913978494648120e+01
3.655913978494648120e+01
3.655913978494648120e+01
2.795698924731206958e+01
2.365591397849486555e+01
1.935483870967766151e+01
1.505376344086045926e+01
1.505376344086045926e+01
1.075268817204325522e+01
6.451612903226050300e+00
-6.451612903225561801e+00
-1.505376344085996898e+01
-1.505376344085996898e+01
-1.935483870967717479e+01
-2.365591397849437882e+01
-2.365591397849437882e+01
-3.225806451612878334e+01
-3.225806451612878334e+01
-2.795698924731158286e+01
-3.655913978494599093e+01
-3.655913978494599093e+01
-4.086021505376319141e+01
-4.086021505376319141e+01
-3.655913978494599093e+01
-3.655913978494599093e+01
-3.225806451612878334e+01
-4.086021505376319141e+01
-4.516129032258039899e+01
-4.086021505376319141e+01
-3.655913978494599093e+01
-2.795698924731158286e+01
-3.225806451612878334e+01
-3.655913978494599093e+01
-4.086021505376319141e+01
-3.655913978494599093e+01
-3.225806451612878334e+01
-2.795698924731158286e+01
-2.795698924731158286e+01
-2.365591397849437882e+01
-2.795698924731158286e+01
-2.795698924731158286e+01
-2.795698924731158286e+01
-2.795698924731158286e+01
-2.365591397849437882e+01
-2.365591397849437882e+01
-2.795698924731158286e+01
-3.225806451612878334e+01
-2.795698924731158286e+01
-2.795698924731158286e+01
-3.655913978494599093e+01
-3.225806451612878334e+01
-3.655913978494599093e+01
-4.086021505376319141e+01
-3.225806451612878334e+01
-3.655913978494599093e+01
-3.655913978494599093e+01
-4.086021505376319141e+01
-4.086021505376319141e+01
-3.655913978494599093e+01
-4.516129032258039899e+01
-4.086021505376319141e+01
-4.946236559139759947e+01
-4.516129032258039899e+01
-4.516129032258039899e+01
-4.946236559139759947e+01
-4.516129032258039899e+01
-4.946236559139759947e+01
-4.946236559139759947e+01
-4.946236559139759947e+01
-4.516129032258039899e+01
-4.516129032258039899e+01
-4.086021505376319141e+01
-4.946236559139759947e+01
-5.376344086021480706e+01
-4.516129032258039899e+01
-4.516129032258039899e+01
-4.086021505376319141e+01
-4.086021505376319141e+01
-4.946236559139759947e+01
-4.946236559139759947e+01
-4.946236559139759947e+01
-4.516129032258039899e+01
-4.946236559139759947e+01
-4.516129032258039899e+01
-4.946236559139759947e+01
-4.946236559139759947e+01
-4.946236559139759947e+01
-4.946236559139759947e+01
-5.376344086021480706e+01
-4.946236559139759947e+01
-4.086021505376319141e+01
-4.946236559139759947e+01
-4.516129032258039899e+01
-4.946236559139759947e+01
-4.946236559139759947e+01
-4.516129032258039899e+01
-4.086021505376319141e+01
-4.516129032258039899e+01
-4.516129032258039899e+01
-4.516129032258039899e+01
-4.086021505376319141e+01
-4.516129032258039899e+01
-4.516129032258039899e+01
-3.655913978494599093e+01
-2.795698924731158286e+01
-1.935483870967717479e+01
-6.451612903225561801e+00
-6.451612903225561801e+00
-2.150537634408357324e+00
6.451612903226050300e+00
2.150537634408846710e+00
-1.075268817204276495e+01
-1.935483870967717479e+01
-2.365591397849437882e+01
-1.935483870967717479e+01
-2.365591397849437882e+01
-2.795698924731158286e+01
-3.225806451612878334e+01
-3.655913978494599093e+01
-4.516129032258039899e+01
-4.946236559139759947e+01
-4.946236559139759947e+01
-4.946236559139759947e+01
-4.516129032258039899e+01
-4.516129032258039899e+01
-4.516129032258039899e+01
-4.946236559139759947e+01
-4.516129032258039899e+01
-4.516129032258039899e+01
-4.946236559139759947e+01
-5.806451612903200754e+01
-4.946236559139759947e+01
-5.376344086021480706e+01
-5.806451612903200754e+01
-7.096774193548361609e+01
-4.086021505376319141e+01
1.935483870967766151e+01
9.677419354838733057e+01
2.129032258064518430e+02
3.806451612903227897e+02
5.354838709677421775e+02
6.301075268817206734e+02
5.569892473118281941e+02
2.473118279569894753e+02
-4.946236559139759947e+01
-2.903225806451610538e+02
-3.462365591397846742e+02
-2.860215053763438391e+02
-2.129032258064513599e+02
-1.612903225806448972e+02
-1.139784946236556635e+02
-6.666666666666641561e+01
-4.946236559139759947e+01
-2.795698924731158286e+01
-3.655913978494599093e+01
-2.795698924731158286e+01
-1.935483870967717479e+01
-1.505376344085996898e+01
-1.935483870967717479e+01
-2.795698924731158286e+01
-2.365591397849437882e+01
-1.935483870967717479e+01
-1.935483870967717479e+01
-1.505376344085996898e+01
-1.935483870967717479e+01
-1.505376344085996898e+01
-6.451612903225561801e+00
-1.075268817204276495e+01
-1.075268817204276495e+01
-6.451612903225561801e+00
-2.150537634408357324e+00
-1.075268817204276495e+01
-2.150537634408357324e+00
-2.150537634408357324e+00
-6.451612903225561801e+00
-2.150537634408357324e+00
2.150537634408846710e+00
-2.150537634408357324e+00
-2.150537634408357324e+00
6.451612903226050300e+00
6.451612903226050300e+00
6.451612903226050300e+00
1.075268817204325522e+01
1.505376344086045926e+01
1.075268817204325522e+01
1.505376344086045926e+01
1.935483870967766151e+01
2.365591397849486555e+01
3.225806451612927361e+01
3.655913978494648120e+01
3.655913978494648120e+01
3.655913978494648120e+01
4.086021505376368168e+01
4.516129032258088927e+01
4.516129032258088927e+01
4.516129032258088927e+01
4.946236559139808975e+01
4.086021505376368168e+01
4.946236559139808975e+01
4.946236559139808975e+01
4.086021505376368168e+01
4.516129032258088927e+01
4.516129032258088927e+01
3.225806451612927361e+01
3.655913978494648120e+01
3.225806451612927361e+01
2.795698924731206958e+01
2.365591397849486555e+01
1.505376344086045926e+01
6.451612903226050300e+00
2.150537634408846710e+00
2.150537634408846710e+00
-1.075268817204276495e+01
-1.075268817204276495e+01
-1.935483870967717479e+01
-2.365591397849437882e+01
-2.795698924731158286e+01
-3.225806451612878334e+01
-3.225806451612878334e+01
-3.225806451612878334e+01
-3.655913978494599093e+01
-4.086021505376319141e+01
-4.086021505376319141e+01
-4.946236559139759947e+01
-4.086021505376319141e+01
-4.516129032258039899e+01
-4.516129032258039899e+01
-4.516129032258039899e+01
-4.516129032258039899e+01
-4.516129032258039899e+01
-4.086021505376319141e+01
-3.655913978494599093e+01
-4.086021505376319141e+01
-3.655913978494599093e+01
-3.655913978494599093e+01
-3.225806451612878334e+01
-3.655913978494599093e+01
-3.225806451612878334e+01
-3.655913978494599093e+01
-3.655913978494599093e+01
-2.795698924731158286e+01
-2.795698924731158286e+01
-2.795698924731158286e+01
-2.365591397849437882e+01
-2.365591397849437882e+01
-2.795698924731158286e+01
-2.365591397849437882e+01
-2.795698924731158286e+01
-2.795698924731158286e+01
-2.365591397849437882e+01
-3.225806451612878334e+01
-2.795698924731158286e+01
-2.795698924731158286e+01
-3.225806451612878334e+01
-3.225806451612878334e+01
-3.225806451612878334e+01
-3.225806451612878334e+01
-3.655913978494599093e+01
-3.225806451612878334e+01
-3.655913978494599093e+01
-4.086021505376319141e+01
-3.655913978494599093e+01
-4.086021505376319141e+01
-4.516129032258039899e+01
-4.516129032258039899e+01
-4.516129032258039899e+01
-4.516129032258039899e+01
-4.516129032258039899e+01
-4.086021505376319141e+01
-4.946236559139759947e+01
-4.516129032258039899e+01
-4.516129032258039899e+01
-4.516129032258039899e+01
-4.516129032258039899e+01
-4.516129032258039899e+01
-4.516129032258039899e+01
-4.946236559139759947e+01
-4.516129032258039899e+01
-4.516129032258039899e+01
-4.516129032258039899e+01
-4.946236559139759947e+01
-4.946236559139759947e+01
-4.946236559139759947e+01
-4.516129032258039899e+01
-4.516129032258039899e+01
-4.516129032258039899e+01
-4.516129032258039899e+01
-4.946236559139759947e+01
-4.516129032258039899e+01
-4.516129032258039899e+01
-4.946236559139759947e+01
-4.946236559139759947e+01
-4.516129032258039899e+01
-4.946236559139759947e+01
-4.946236559139759947e+01
-4.516129032258039899e+01
-4.516129032258039899e+01
-4.516129032258039899e+01
-4.946236559139759947e+01
-4.516129032258039899e+01
-4.946236559139759947e+01
-4.516129032258039899e+01
-3.655913978494599093e+01
-3.655913978494599093e+01
-2.365591397849437882e+01
-1.505376344085996898e+01
-1.935483870967717479e+01
-1.075268817204276495e+01
2.150537634408846710e+00
-2.150537634408357324e+00
6.451612903226050300e+00
2.150537634408846710e+00
-1.505376344085996898e+01
-1.935483870967717479e+01
-1.935483870967717479e+01
-1.935483870967717479e+01
-1.935483870967717479e+01
-1.935483870967717479e+01
-2.365591397849437882e+01
-3.655913978494599093e+01
-4.516129032258039899e+01
-4.516129032258039899e+01
-5.806451612903200754e+01
-4.946236559139759947e+01
-4.086021505376319141e+01
-4.946236559139759947e+01
-4.516129032258039899e+01
-3.655913978494599093e+01
-4.516129032258039899e+01
-4.946236559139759947e+01
-4.946236559139759947e+01
-5.806451612903200754e+01
-5.376344086021480706e+01
-5.376344086021480706e+01
-5.806451612903200754e+01
-7.956989247311803126e+01
-4.516129032258039899e+01
1.935483870967766151e+01
1.053763440860217457e+02
2.172043010752690577e+02
3.892473118279572191e+02
5.225806451612905903e+02
5.827956989247313686e+02
5.268817204301077481e+02
2.086021505376346283e+02
-7.956989247311803126e+01
-2.946236559139782116e+02
-3.462365591397846742e+02
-2.473118279569889921e+02
-1.698924731182793266e+02
-1.096774193548384631e+02
-7.526881720430083078e+01
-5.376344086021480706e+01
-4.086021505376319141e+01
-3.225806451612878334e+01
-3.225806451612878334e+01
-3.655913978494599093e+01
-2.795698924731158286e+01
-2.365591397849437882e+01
-2.795698924731158286e+01
-3.225806451612878334e+01
-3.225806451612878334e+01
-2.795698924731158286e+01
-2.795698924731158286e+01
-2.795698924731158286e+01
-2.365591397849437882e+01
-2.365591397849437882e+01
-1.935483870967717479e+01
-1.505376344085996898e+01
-1.505376344085996898e+01
-1.505376344085996898e+01
-1.075268817204276495e+01
-1.075268817204276495e+01
-1.075268817204276495e+01
-1.075268817204276495e+01
-1.075268817204276495e+01
-1.075268817204276495e+01
-1.505376344085996898e+01
-6.451612903225561801e+00
-6.451612903225561801e+00
-6.451612903225561801e+00
2.150537634408846710e+00
2.150537634408846710e+00
2.150537634408846710e+00
6.451612903226050300e+00
6.451612903226050300e+00
1.075268817204325522e+01
1.075268817204325522e+01
1.935483870967766151e+01
2.795698924731206958e+01
2.795698924731206958e+01
3.655913978494648120e+01
3.655913978494648120e+01
3.655913978494648120e+01
3.655913978494648120e+01
4.086021505376368168e+01
4.086021505376368168e+01
4.086021505376368168e+01
4.516129032258088927e+01
4.516129032258088927e+01
4.516129032258088927e+01
4.516129032258088927e+01
4.086021505376368168e+01
4.086021505376368168e+01
3.655913978494648120e+01
3.225806451612927361e+01
3.225806451612927361e+01
2.365591397849486555e+01
1.935483870967766151e+01
1.075268817204325522e+01
-2.150537634408357324e+00
-2.150537634408357324e+00
-1.075268817204276495e+01
-1.505376344085996898e+01
-1.935483870967717479e+01
-2.365591397849437882e+01
-2.795698924731158286e+01
-3.225806451612878334e+01
-3.655913978494599093e+01
-3.655913978494599093e+01
-4.086021505376319141e+01
-3.655913978494599093e+01
-4.516129032258039899e+01
-4.516129032258039899e+01
-4.516129032258039899e+01
-4.946236559139759947e+01
-4.516129032258039899e+01
-4.516129032258039899e+01
-4.516129032258039899e+01
-4.516129032258039899e+01
-4.516129032258039899e+01
-4.516129032258039899e+01
-4.516129032258039899e+01
-4.946236559139759947e+01
-4.946236559139759947e+01
-4.516129032258039899e+01
-4.086021505376319141e+01
-4.086021505376319141e+01
-4.086021505376319141e+01
-4.086021505376319141e+01
-4.086021505376319141e+01
-3.655913978494599093e+01
-3.655913978494599093e+01
-3.655913978494599093e+01
-4.086021505376319141e+01
-4.086021505376319141e+01
-3.225806451612878334e+01
-3.655913978494599093e+01
-3.655913978494599093e+01
-3.655913978494599093e+01
-4.516129032258039899e+01
-4.086021505376319141e+01
-4.086021505376319141e+01
-4.086021505376319141e+01
-4.516129032258039899e+01
-4.516129032258039899e+01
-4.516129032258039899e+01
-4.946236559139759947e+01
-4.516129032258039899e+01
-4.946236559139759947e+01
-4.946236559139759947e+01
-5.376344086021480706e+01
-4.946236559139759947e+01
-4.946236559139759947e+01
-5.376344086021480706e+01
-5.376344086021480706e+01
-5.376344086021480706e+01
-5.376344086021480706e+01
-5.376344086021480706e+01
-5.376344086021480706e+01
-5.806451612903200754e+01
-5.806451612903200754e+01
-5.376344086021480706e+01
-5.806451612903200754e+01
-5.806451612903200754e+01
-5.806451612903200754e+01
-5.376344086021480706e+01
-5.376344086021480706e+01
-5.376344086021480706e+01
-5.806451612903200754e+01
-5.806451612903200754e+01
-5.806451612903200754e+01
-5.376344086021480706e+01
-5.376344086021480706e+01
-5.376344086021480706e+01
-5.376344086021480706e+01
-5.376344086021480706e+01
-5.376344086021480706e+01
-5.806451612903200754e+01
-5.376344086021480706e+01
-5.806451612903200754e+01
-5.376344086021480706e+01
-4.946236559139759947e+01
-5.376344086021480706e+01
-5.376344086021480706e+01
-5.376344086021480706e+01
-5.376344086021480706e+01
-5.376344086021480706e+01
-5.376344086021480706e+01
-5.376344086021480706e+01
-5.376344086021480706e+01
-4.516129032258039899e+01
-4.086021505376319141e+01
-3.655913978494599093e+01
-1.935483870967717479e+01
-1.935483870967717479e+01
-1.505376344085996898e+01
-6.451612903225561801e+00
-6.451612903225561801e+00
2.150537634408846710e+00
-2.150537634408357324e+00
-1.075268817204276495e+01
-2.365591397849437882e+01
-2.365591397849437882e+01
-2.365591397849437882e+01
-2.365591397849437882e+01
-2.365591397849437882e+01
-3.225806451612878334e+01
-4.086021505376319141e+01
-4.946236559139759947e+01
-5.376344086021480706e+01
-6.236559139784921513e+01
-6.236559139784921513e+01
-5.806451612903200754e+01
-5.376344086021480706e+01
-5.376344086021480706e+01
-5.376344086021480706e+01
-4.946236559139759947e+01
-4.946236559139759947e+01
-5.376344086021480706e+01
-6.236559139784921513e+01
-6.236559139784921513e+01
-6.236559139784921513e+01
-6.236559139784921513e+01
-7.956989247311803126e+01
-8.387096774193523174e+01
-2.365591397849437882e+01
4.946236559139808975e+01
1.569892473118281941e+02
2.903225806451615085e+02
4.709677419354840708e+02
5.655913978494626235e+02
5.956989247311829558e+02
4.107526881720432357e+02
5.806451612903249782e+01
-2.043010752688169589e+02
-3.720430107526879056e+02
-3.204301075268814429e+02
-2.129032258064513599e+02
-1.354838709677416944e+02
-8.817204301075243222e+01
-6.666666666666641561e+01
-5.376344086021480706e+01
-3.655913978494599093e+01
-3.225806451612878334e+01
-4.086021505376319141e+01
-3.225806451612878334e+01
-2.795698924731158286e+01
-2.795698924731158286e+01
-3.225806451612878334e+01
-3.225806451612878334e+01
-3.655913978494599093e+01
-2.795698924731158286e+01
-2.795698924731158286e+01
-2.795698924731158286e+01
-2.365591397849437882e+01
-2.365591397849437882e+01
-2.365591397849437882e+01
-2.365591397849437882e+01
-1.935483870967717479e+01
-1.505376344085996898e+01
-1.935483870967717479e+01
-1.935483870967717479e+01
-1.505376344085996898e+01
-1.935483870967717479e+01
-1.075268817204276495e+01
-1.505376344085996898e+01
-1.505376344085996898e+01
-1.075268817204276495e+01
-1.075268817204276495e+01
-6.451612903225561801e+00
-2.150537634408357324e+00
-2.150537634408357324e+00
2.150537634408846710e+00
2.150537634408846710e+00
6.451612903226050300e+00
1.075268817204325522e+01
1.075268817204325522e+01
1.505376344086045926e+01
2.365591397849486555e+01
1.935483870967766151e+01
2.795698924731206958e+01
3.225806451612927361e+01
3.225806451612927361e+01
3.655913978494648120e+01
3.655913978494648120e+01
4.086021505376368168e+01
3.655913978494648120e+01
4.086021505376368168e+01
4.086021505376368168e+01
3.655913978494648120e+01
3.655913978494648120e+01
3.225806451612927361e+01
3.225806451612927361e+01
3.225806451612927361e+01
2.795698924731206958e+01
2.365591397849486555e+01
2.365591397849486555e+01
1.505376344086045926e+01
1.075268817204325522e+01
-2.150537634408357324e+00
-1.075268817204276495e+01
-1.075268817204276495e+01
-1.935483870967717479e+01
-1.935483870967717479e+01
-2.365591397849437882e+01
-3.225806451612878334e+01
-3.225806451612878334e+01
-3.225806451612878334e+01
-4.086021505376319141e+01
-4.086021505376319141e+01
-4.516129032258039899e+01
-4.946236559139759947e+01
-4.516129032258039899e+01
-4.516129032258039899e+01
-4.946236559139759947e+01
-4.946236559139759947e+01
-4.946236559139759947e+01
-4.516129032258039899e+01
-4.946236559139759947e+01
-4.516129032258039899e+01
-4.516129032258039899e+01
-4.516129032258039899e+01
-4.086021505376319141e+01
-4.086021505376319141e+01
-4.516129032258039899e+01
-4.516129032258039899e+01
-4.516129032258039899e+01
-4.516129032258039899e+01
-4.086021505376319141e+01
-4.086021505376319141e+01
-4.086021505376319141e+01
-4.086021505376319141e+01
-4.516129032258039899e+01
-3.655913978494599093e+01
-4.086021505376319141e+01
-4.516129032258039899e+01
-4.516129032258039899e+01
-4.516129032258039899e+01
-4.516129032258039899e+01
-4.946236559139759947e+01
-4.516129032258039899e+01
-4.946236559139759947e+01
-4.516129032258039899e+01
-4.946236559139759947e+01
-4.946236559139759947e+01
-5.376344086021480706e+01
-5.376344086021480706e+01
-5.376344086021480706e+01
-5.376344086021480706e+01
-5.376344086021480706e+01
-5.806451612903200754e+01
-4.946236559139759947e+01
-5.376344086021480706e+01
-5.376344086021480706e+01
-5.376344086021480706e+01
-6.236559139784921513e+01
-5.806451612903200754e+01
-5.806451612903200754e+01
-5.806451612903200754e+01
-6.236559139784921513e+01
-5.806451612903200754e+01
-6.236559139784921513e+01
-6.236559139784921513e+01
-5.806451612903200754e+01
-6.236559139784921513e+01
-5.806451612903200754e+01
-5.806451612903200754e+01
-6.236559139784921513e+01
-6.236559139784921513e+01
-6.236559139784921513e+01
-6.236559139784921513e+01
-6.236559139784921513e+01
-6.236559139784921513e+01
-5.806451612903200754e+01
-6.236559139784921513e+01
-6.236559139784921513e+01
-5.806451612903200754e+01
-5.806451612903200754e+01
-5.376344086021480706e+01
-5.376344086021480706e+01
-4.946236559139759947e+01
-5.806451612903200754e+01
-5.376344086021480706e+01
-5.806451612903200754e+01
-6.236559139784921513e+01
-5.376344086021480706e+01
-5.806451612903200754e+01
-5.806451612903200754e+01
-5.806451612903200754e+01
-5.806451612903200754e+01
-6.236559139784921513e+01
-5.806451612903200754e+01
-5.376344086021480706e+01
-5.376344086021480706e+01
-5.376344086021480706e+01
-5.376344086021480706e+01
-4.516129032258039899e+01
-4.516129032258039899e+01
-3.655913978494599093e+01
-1.935483870967717479e+01
-2.365591397849437882e+01
-1.935483870967717479e+01
-6.451612903225561801e+00
-1.075268817204276495e+01
2.150537634408846710e+00
2.150537634408846710e+00
-1.075268817204276495e+01
-1.935483870967717479e+01
-2.365591397849437882e+01
-2.365591397849437882e+01
-2.795698924731158286e+01
-2.795698924731158286e+01
-3.655913978494599093e+01
-3.655913978494599093e+01
-4.946236559139759947e+01
-4.946236559139759947e+01
-5.806451612903200754e+01
-5.806451612903200754e+01
-4.946236559139759947e+01
-5.806451612903200754e+01
-5.376344086021480706e+01
-5.806451612903200754e+01
-4.946236559139759947e+01
-4.516129032258039899e+01
-5.806451612903200754e+01
-5.806451612903200754e+01
-6.236559139784921513e+01
-6.236559139784921513e+01
-5.376344086021480706e+01
-6.666666666666641561e+01
-7.526881720430083078e+01
-2.795698924731158286e+01
3.655913978494648120e+01
1.182795698924733614e+02
2.473118279569894753e+02
4.322580645161292523e+02
5.698924731182797814e+02
6.387096774193549891e+02
5.010752688172045168e+02
1.612903225806454088e+02
-1.397849462365588806e+02
-3.333333333333330870e+02
-3.505376344086018889e+02
-2.731182795698921950e+02
-1.913978494623653432e+02
-1.397849462365588806e+02
-9.247311827956964692e+01
-5.806451612903200754e+01
-4.086021505376319141e+01
-3.655913978494599093e+01
-3.655913978494599093e+01
-2.795698924731158286e+01
-2.365591397849437882e+01
-1.935483870967717479e+01
-2.365591397849437882e+01
-2.795698924731158286e+01
-2.365591397849437882e+01
-2.795698924731158286e+01
-3.225806451612878334e+01
-3.225806451612878334e+01
-2.365591397849437882e+01
-2.365591397849437882e+01
-1.505376344085996898e+01
-1.935483870967717479e+01
-1.505376344085996898e+01
-1.505376344085996898e+01
-1.935483870967717479e+01
-1.075268817204276495e+01
-1.075268817204276495e+01
-6.451612903225561801e+00
-6.451612903225561801e+00
-2.150537634408357324e+00
-1.075268817204276495e+01
-1.075268817204276495e+01
-6.451612903225561801e+00
-6.451612903225561801e+00
6.451612903226050300e+00
2.150537634408846710e+00
2.150537634408846710e+00
2.150537634408846710e+00
2.150537634408846710e+00
6.451612903226050300e+00
1.505376344086045926e+01
1.505376344086045926e+01
1.935483870967766151e+01
1.505376344086045926e+01
1.935483870967766151e+01
3.225806451612927361e+01
3.225806451612927361e+01
3.225806451612927361e+01
3.655913978494648120e+01
3.225806451612927361e+01
3.225806451612927361e+01
3.655913978494648120e+01
3.655913978494648120e+01
3.655913978494648120e+01
3.225806451612927361e+01
2.795698924731206958e+01
2.365591397849486555e+01
2.365591397849486555e+01
2.795698924731206958e+01
2.365591397849486555e+01
1.935483870967766151e+01
1.075268817204325522e+01
2.150537634408846710e+00
-2.150537634408357324e+00
-2.150537634408357324e+00
-6.451612903225561801e+00
-1.505376344085996898e+01
-2.365591397849437882e+01
-3.225806451612878334e+01
-3.225806451612878334e+01
-3.655913978494599093e+01
-4.086021505376319141e+01
-4.086021505376319141e+01
-4.516129032258039899e+01
-4.946236559139759947e+01
-4.946236559139759947e+01
-5.376344086021480706e+01
-4.516129032258039899e+01
-4.516129032258039899e+01
-4.516129032258039899e+01
-4.946236559139759947e+01
-5.806451612903200754e+01
-5.376344086021480706e+01
-4.946236559139759947e+01
-4.086021505376319141e+01
-4.516129032258039899e+01
-4.086021505376319141e+01
-4.516129032258039899e+01
-4.516129032258039899e+01
-4.086021505376319141e+01
-4.516129032258039899e+01
-3.655913978494599093e+01
-4.086021505376319141e+01
-3.225806451612878334e+01
-3.655913978494599093e+01
-4.086021505376319141e+01
-4.086021505376319141e+01
-4.086021505376319141e+01
-3.655913978494599093e+01
-4.086021505376319141e+01
-3.225806451612878334e+01
-3.655913978494599093e+01
-3.225806451612878334e+01
-2.795698924731158286e+01
-3.655913978494599093e+01
-3.655913978494599093e+01
-4.516129032258039899e+01
-4.946236559139759947e+01
-4.946236559139759947e+01
-4.946236559139759947e+01
-4.516129032258039899e+01
-4.946236559139759947e+01
-4.946236559139759947e+01
-4.946236559139759947e+01
-5.376344086021480706e+01
-4.946236559139759947e+01
-5.376344086021480706e+01
-5.806451612903200754e+01
-5.376344086021480706e+01
-5.806451612903200754e+01
-5.376344086021480706e+01
-5.806451612903200754e+01
-4.946236559139759947e+01
-5.376344086021480706e+01
-5.806451612903200754e+01
-5.806451612903200754e+01
-6.236559139784921513e+01
-5.376344086021480706e+01
-5.376344086021480706e+01
-4.946236559139759947e+01
-5.806451612903200754e+01
-6.236559139784921513e+01
-6.236559139784921513e+01
-6.236559139784921513e+01
-6.236559139784921513e+01
-5.376344086021480706e+01
-5.376344086021480706e+01
-5.376344086021480706e+01
-4.946236559139759947e+01
-5.376344086021480706e+01
-4.946236559139759947e+01
-5.376344086021480706e+01
-5.376344086021480706e+01
-4.946236559139759947e+01
-5.806451612903200754e+01
-5.806451612903200754e+01
-5.376344086021480706e+01
-5.376344086021480706e+01
-5.376344086021480706e+01
-4.516129032258039899e+01
-4.946236559139759947e+01
-5.376344086021480706e+01
-4.946236559139759947e+01
-5.806451612903200754e+01
-5.376344086021480706e+01
-4.086021505376319141e+01
-4.516129032258039899e+01
-4.086021505376319141e+01
-3.655913978494599093e+01
-3.655913978494599093e+01
-2.795698924731158286e+01
-1.505376344085996898e+01
-1.505376344085996898e+01
-1.075268817204276495e+01
-2.150537634408357324e+00
-1.075268817204276495e+01
-1.505376344085996898e+01
-1.935483870967717479e+01
-2.365591397849437882e+01
-1.935483870967717479e+01
-2.365591397849437882e+01
-2.365591397849437882e+01
-2.795698924731158286e+01
-4.086021505376319141e+01
-4.516129032258039899e+01
-5.376344086021480706e+01
-6.236559139784921513e+01
-5.806451612903200754e+01
-5.806451612903200754e+01
-6.236559139784921513e+01
-4.946236559139759947e+01
-5.376344086021480706e+01
-4.946236559139759947e+01
-4.946236559139759947e+01
-5.376344086021480706e+01
-6.236559139784921513e+01
-5.806451612903200754e+01
-5.376344086021480706e+01
-6.236559139784921513e+01
-7.096774193548361609e+01
-6.666666666666641561e+01
-1.935483870967717479e+01
4.516129032258088927e+01
1.440860215053765785e+02
2.946236559139787232e+02
4.795698924731185002e+02
6.000000000000002274e+02
6.258064516129034018e+02
3.978494623655915916e+02
6.666666666666691299e+01
-1.956989247311825295e+02
-3.505376344086018889e+02
-3.204301075268814429e+02
-2.430107526881717774e+02
-1.741935483870965129e+02
-1.354838709677416944e+02
-7.956989247311803126e+01
-5.376344086021480706e+01
-3.655913978494599093e+01
-3.655913978494599093e+01
-3.655913978494599093e+01
-3.225806451612878334e+01
-2.365591397849437882e+01
-2.365591397849437882e+01
-3.225806451612878334e+01
-2.365591397849437882e+01
-2.795698924731158286e+01
-2.795698924731158286e+01
-2.795698924731158286e+01
-2.795698924731158286e+01
-1.935483870967717479e+01
-1.505376344085996898e+01
-1.505376344085996898e+01
-1.505376344085996898e+01
-1.505376344085996898e+01
-1.505376344085996898e+01
-1.075268817204276495e+01
-1.075268817204276495e+01
-2.150537634408357324e+00
-6.451612903225561801e+00
-6.451612903225561801e+00
2.150537634408846710e+00
-6.451612903225561801e+00
2.150537634408846710e+00
2.150537634408846710e+00
2.150537634408846710e+00
2.150537634408846710e+00
6.451612903226050300e+00
6.451612903226050300e+00
1.505376344086045926e+01
1.935483870967766151e+01
1.505376344086045926e+01
1.935483870967766151e+01
1.935483870967766151e+01
2.365591397849486555e+01
2.795698924731206958e+01
3.655913978494648120e+01
3.655913978494648120e+01
3.655913978494648120e+01
4.086021505376368168e+01
4.086021505376368168e+01
4.086021505376368168e+01
4.516129032258088927e+01
4.516129032258088927e+01
4.086021505376368168e+01
4.516129032258088927e+01
4.086021505376368168e+01
4.086021505376368168e+01
4.086021505376368168e+01
3.655913978494648120e+01
3.655913978494648120e+01
3.225806451612927361e+01
2.365591397849486555e+01
1.505376344086045926e+01
1.075268817204325522e+01
6.451612903226050300e+00
-2.150537634408357324e+00
-1.075268817204276495e+01
-1.505376344085996898e+01
-2.795698924731158286e+01
-2.365591397849437882e+01
-3.225806451612878334e+01
-3.225806451612878334e+01
-3.655913978494599093e+01
-4.516129032258039899e+01
-4.086021505376319141e+01
-4.086021505376319141e+01
-4.086021505376319141e+01
-4.086021505376319141e+01
-4.516129032258039899e+01
-4.086021505376319141e+01
-4.946236559139759947e+01
-4.516129032258039899e+01
-4.516129032258039899e+01
-4.946236559139759947e+01
-4.086021505376319141e+01
-4.086021505376319141e+01
-4.086021505376319141e+01
-4.516129032258039899e+01
-3.655913978494599093e+01
-4.086021505376319141e+01
-3.655913978494599093e+01
-3.655913978494599093e+01
-3.655913978494599093e+01
-3.225806451612878334e+01
-3.655913978494599093e+01
-2.795698924731158286e+01
-3.225806451612878334e+01
-3.225806451612878334e+01
-2.795698924731158286e+01
-2.795698924731158286e+01
-3.225806451612878334e+01
-2.365591397849437882e+01
-2.795698924731158286e+01
-3.225806451612878334e+01
-2.365591397849437882e+01
-3.225806451612878334e+01
-3.655913978494599093e+01
-3.655913978494599093e+01
-3.225806451612878334e+01
-3.655913978494599093e+01
-3.655913978494599093e+01
-3.225806451612878334e+01
-3.655913978494599093e+01
-4.086021505376319141e+01
-3.655913978494599093e+01
-4.086021505376319141e+01
-4.086021505376319141e+01
-3.655913978494599093e+01
-4.086021505376319141e+01
-4.516129032258039899e+01
-4.516129032258039899e+01
-4.516129032258039899e+01
-4.516129032258039899e+01
-4.946236559139759947e+01
-4.516129032258039899e+01
-4.516129032258039899e+01
-4.516129032258039899e+01
-4.516129032258039899e+01
-4.516129032258039899e+01
-4.516129032258039899e+01
-4.946236559139759947e+01
-4.516129032258039899e+01
-4.516129032258039899e+01
-4.946236559139759947e+01
-4.516129032258039899e+01
-4.946236559139759947e+01
-4.946236559139759947e+01
-4.946236559139759947e+01
-4.516129032258039899e+01
-4.946236559139759947e+01
-4.946236559139759947e+01
-4.516129032258039899e+01
-4.086021505376319141e+01
-4.086021505376319141e+01
-4.946236559139759947e+01
-4.516129032258039899e+01
-4.946236559139759947e+01
-4.516129032258039899e+01
-4.516129032258039899e+01
-4.086021505376319141e+01
-4.516129032258039899e+01
-4.946236559139759947e+01
-4.086021505376319141e+01
-4.086021505376319141e+01
-4.086021505376319141e+01
-4.086021505376319141e+01
-3.655913978494599093e+01
-4.086021505376319141e+01
-3.655913978494599093e+01
-1.935483870967717479e+01
-1.935483870967717479e+01
-1.075268817204276495e+01
-2.150537634408357324e+00
-6.451612903225561801e+00
-2.150537634408357324e+00
6.451612903226050300e+00
-2.150537634408357324e+00
-1.075268817204276495e+01
-1.505376344085996898e+01
-1.935483870967717479e+01
-1.935483870967717479e+01
-1.935483870967717479e+01
-2.365591397849437882e+01
-2.365591397849437882e+01
-3.655913978494599093e+01
-4.086021505376319141e+01
-4.946236559139759947e+01
-4.946236559139759947e+01
-4.946236559139759947e+01
-4.516129032258039899e+01
-4.516129032258039899e+01
-4.516129032258039899e+01
-3.655913978494599093e+01
-4.516129032258039899e+01
-4.516129032258039899e+01
-4.946236559139759947e+01
-5.376344086021480706e+01
-4.946236559139759947e+01
-4.946236559139759947e+01
-5.806451612903200754e+01
-7.956989247311803126e+01
-4.516129032258039899e+01
1.935483870967766151e+01
1.096774193548389462e+02
2.215053763440862440e+02
3.849462365591400044e+02
5.311827956989249060e+02
5.913978494623657980e+02
5.354838709677421775e+02
2.258064516129034587e+02
-6.666666666666641561e+01
-2.860215053763438391e+02
-3.419354838709674596e+02
-2.473118279569889921e+02
-1.655913978494621119e+02
-1.096774193548384631e+02
-7.526881720430083078e+01
-5.376344086021480706e+01
-4.086021505376319141e+01
-2.795698924731158286e+01
-3.655913978494599093e+01
-3.225806451612878334e+01
-2.365591397849437882e+01
-1.935483870967717479e+01
-1.935483870967717479e+01
-2.795698924731158286e+01
-2.795698924731158286e+01
-2.365591397849437882e+01
-1.935483870967717479e+01
-1.935483870967717479e+01
-1.935483870967717479e+01
-1.505376344085996898e+01
-1.935483870967717479e+01
-1.935483870967717479e+01
-1.505376344085996898e+01
-1.505376344085996898e+01
-1.505376344085996898e+01
-1.075268817204276495e+01
-1.075268817204276495e+01
-1.505376344085996898e+01
-1.075268817204276495e+01
-6.451612903225561801e+00
-2.150537634408357324e+00
-6.451612903225561801e+00
-2.150537634408357324e+00
-2.150537634408357324e+00
-2.150537634408357324e+00
6.451612903226050300e+00
6.451612903226050300e+00
6.451612903226050300e+00
1.075268817204325522e+01
1.075268817204325522e+01
1.505376344086045926e+01
1.935483870967766151e+01
2.365591397849486555e+01
2.795698924731206958e+01
3.225806451612927361e+01
3.655913978494648120e+01
3.655913978494648120e+01
4.086021505376368168e+01
4.516129032258088927e+01
4.516129032258088927e+01
4.516129032258088927e+01
4.516129032258088927e+01
4.516129032258088927e+01
4.086021505376368168e+01
4.516129032258088927e+01
4.516129032258088927e+01
3.655913978494648120e+01
4.086021505376368168e+01
4.086021505376368168e+01
2.795698924731206958e+01
2.795698924731206958e+01
2.365591397849486555e+01
1.505376344086045926e+01
1.505376344086045926e+01
6.451612903226050300e+00
-2.150537634408357324e+00
-1.075268817204276495e+01
-1.505376344085996898e+01
-2.365591397849437882e+01
-3.225806451612878334e+01
-3.225806451612878334e+01
-4.086021505376319141e+01
-4.086021505376319141e+01
-4.086021505376319141e+01
-4.086021505376319141e+01
-4.086021505376319141e+01
-4.086021505376319141e+01
-4.086021505376319141e+01
-4.516129032258039899e+01
-4.516129032258039899e+01
-4.516129032258039899e+01
-4.086021505376319141e+01
-4.516129032258039899e+01
-4.516129032258039899e+01
-4.516129032258039899e+01
-4.946236559139759947e+01
-4.516129032258039899e+01
-4.516129032258039899e+01
-4.516129032258039899e+01
-4.516129032258039899e+01
-4.086021505376319141e+01
-4.086021505376319141e+01
-4.516129032258039899e+01
-3.655913978494599093e+01
-4.086021505376319141e+01
-4.086021505376319141e+01
-4.086021505376319141e+01
-4.516129032258039899e+01
-4.516129032258039899e+01
-4.086021505376319141e+01
-4.086021505376319141e+01
-4.516129032258039899e+01
-4.516129032258039899e+01
-4.516129032258039899e+01
-5.376344086021480706e+01
-4.946236559139759947e+01
-4.946236559139759947e+01
-4.946236559139759947e+01
-4.516129032258039899e+01
-4.946236559139759947e+01
-4.946236559139759947e+01
-5.806451612903200754e+01
-4.946236559139759947e+01
-4.946236559139759947e+01
-5.376344086021480706e+01
-5.376344086021480706e+01
-5.806451612903200754e+01
-5.806451612903200754e+01
-5.806451612903200754e+01
-5.806451612903200754e+01
-5.806451612903200754e+01
-5.806451612903200754e+01
-5.806451612903200754e+01
-6.236559139784921513e+01
-6.236559139784921513e+01
-5.806451612903200754e+01
-6.236559139784921513e+01
-5.376344086021480706e+01
-6.236559139784921513e+01
-6.236559139784921513e+01
-5.806451612903200754e+01
-6.236559139784921513e+01
-5.806451612903200754e+01
-5.806451612903200754e+01
-5.806451612903200754e+01
-6.236559139784921513e+01
-5.806451612903200754e+01
-6.236559139784921513e+01
-5.806451612903200754e+01
-5.376344086021480706e+01
-5.806451612903200754e+01
-5.806451612903200754e+01
-5.806451612903200754e+01
-5.376344086021480706e+01
-5.806451612903200754e+01
-5.376344086021480706e+01
-5.376344086021480706e+01
-5.806451612903200754e+01
-5.376344086021480706e+01
-6.236559139784921513e+01
-5.806451612903200754e+01
-5.806451612903200754e+01
-6.236559139784921513e+01
-4.946236559139759947e+01
-5.376344086021480706e+01
-5.806451612903200754e+01
-4.946236559139759947e+01
-5.376344086021480706e+01
-5.806451612903200754e+01
-4.946236559139759947e+01
-4.946236559139759947e+01
-5.376344086021480706e+01
-5.376344086021480706e+01
-4.946236559139759947e+01
-4.946236559139759947e+01
-4.516129032258039899e+01
-4.086021505376319141e+01
-4.086021505376319141e+01
-2.795698924731158286e+01
-1.935483870967717479e+01
-1.935483870967717479e+01
-6.451612903225561801e+00
-6.451612903225561801e+00
-2.150537634408357324e+00
2.150537634408846710e+00
-1.075268817204276495e+01
-1.505376344085996898e+01
-2.365591397849437882e+01
-1.935483870967717479e+01
-1.935483870967717479e+01
-2.795698924731158286e+01
-3.225806451612878334e+01
-3.655913978494599093e+01
-4.516129032258039899e+01
-5.376344086021480706e+01
-5.806451612903200754e+01
-6.236559139784921513e+01
-5.806451612903200754e+01
-5.376344086021480706e+01
-5.376344086021480706e+01
-5.376344086021480706e+01
-4.946236559139759947e+01
-4.946236559139759947e+01
-5.806451612903200754e+01
-6.236559139784921513e+01
-6.236559139784921513e+01
-5.376344086021480706e+01
-5.806451612903200754e+01
-6.236559139784921513e+01
-9.247311827956964692e+01
-7.096774193548361609e+01
2.150537634408846710e+00
9.247311827957013008e+01
2.000000000000002274e+02
3.591397849462367731e+02
5.139784946236561609e+02
5.784946236559142108e+02
5.612903225806453520e+02
2.688172043010754919e+02
-4.516129032258039899e+01
-2.817204301075266244e+02
-3.720430107526879056e+02
-2.731182795698921950e+02
-1.870967741935481286e+02
-1.182795698924728640e+02
-7.956989247311803126e+01
-6.236559139784921513e+01
-4.946236559139759947e+01
-3.225806451612878334e+01
-3.655913978494599093e+01
-3.655913978494599093e+01
-3.225806451612878334e+01
-2.365591397849437882e+01
-2.795698924731158286e+01
-3.655913978494599093e+01
-3.655913978494599093e+01
-3.225806451612878334e+01
-3.225806451612878334e+01
-2.795698924731158286e+01
-2.795698924731158286e+01
-2.365591397849437882e+01
-2.365591397849437882e+01
-2.365591397849437882e+01
-2.795698924731158286e+01
-1.935483870967717479e+01
-1.935483870967717479e+01
-1.935483870967717479e+01
-1.935483870967717479e+01
-2.365591397849437882e+01
-1.935483870967717479e+01
-1.505376344085996898e+01
-1.075268817204276495e+01
-1.075268817204276495e+01
-6.451612903225561801e+00
-6.451612903225561801e+00
-1.075268817204276495e+01
-6.451612903225561801e+00
-2.150537634408357324e+00
2.150537634408846710e+00
6.451612903226050300e+00
6.451612903226050300e+00
6.451612903226050300e+00
6.451612903226050300e+00
1.075268817204325522e+01
1.935483870967766151e+01
2.365591397849486555e+01
2.795698924731206958e+01
2.795698924731206958e+01
2.795698924731206958e+01
3.225806451612927361e+01
3.655913978494648120e+01
3.655913978494648120e+01
3.225806451612927361e+01
3.655913978494648120e+01
3.225806451612927361e+01
3.225806451612927361e+01
3.655913978494648120e+01
3.225806451612927361e+01
3.225806451612927361e+01
2.795698924731206958e+01
2.795698924731206958e+01
2.365591397849486555e+01
1.505376344086045926e+01
1.075268817204325522e+01
2.150537634408846710e+00
-6.451612903225561801e+00
-1.075268817204276495e+01
-1.505376344085996898e+01
-2.365591397849437882e+01
-2.795698924731158286e+01
-3.225806451612878334e+01
-4.086021505376319141e+01
-4.086021505376319141e+01
-4.086021505376319141e+01
-4.516129032258039899e+01
-4.086021505376319141e+01
-4.516129032258039899e+01
-4.516129032258039899e+01
-4.946236559139759947e+01
-5.376344086021480706e+01
-4.946236559139759947e+01
-4.946236559139759947e+01
-4.516129032258039899e+01
-4.946236559139759947e+01
-4.946236559139759947e+01
-5.376344086021480706e+01
-4.946236559139759947e+01
-4.516129032258039899e+01
-4.516129032258039899e+01
-4.086021505376319141e+01
-4.946236559139759947e+01
-4.086021505376319141e+01
-4.946236559139759947e+01
-4.086021505376319141e+01
-4.516129032258039899e+01
-4.946236559139759947e+01
-4.516129032258039899e+01
-5.376344086021480706e+01
-4.086021505376319141e+01
-4.516129032258039899e+01
-4.946236559139759947e+01
-4.946236559139759947e+01
-4.946236559139759947e+01
-5.376344086021480706e+01
-4.946236559139759947e+01
-4.946236559139759947e+01
-6.236559139784921513e+01
-5.376344086021480706e+01
-5.376344086021480706e+01
-5.806451612903200754e+01
-6.236559139784921513e+01
-5.806451612903200754e+01
-6.236559139784921513e+01
-5.806451612903200754e+01
-5.376344086021480706e+01
-5.806451612903200754e+01
-5.806451612903200754e+01
-6.236559139784921513e+01
-5.806451612903200754e+01
-6.236559139784921513e+01
-6.236559139784921513e+01
-6.236559139784921513e+01
-6.236559139784921513e+01
-6.236559139784921513e+01
-6.236559139784921513e+01
-6.236559139784921513e+01
-6.666666666666641561e+01
-6.236559139784921513e+01
-6.666666666666641561e+01
-6.666666666666641561e+01
-6.236559139784921513e+01
-5.806451612903200754e+01
-6.236559139784921513e+01
-5.806451612903200754e+01
-5.806451612903200754e+01
-6.236559139784921513e+01
-5.806451612903200754e+01
-5.806451612903200754e+01
-5.806451612903200754e+01
-6.666666666666641561e+01
-6.236559139784921513e+01
-5.806451612903200754e+01
-6.236559139784921513e+01
-5.376344086021480706e+01
-5.806451612903200754e+01
-6.236559139784921513e+01
-5.806451612903200754e+01
-6.236559139784921513e+01
-6.236559139784921513e+01
-5.806451612903200754e+01
-6.236559139784921513e+01
-5.806451612903200754e+01
-5.806451612903200754e+01
-6.236559139784921513e+01
-5.806451612903200754e+01
-5.806451612903200754e+01
-5.376344086021480706e+01
-5.376344086021480706e+01
-6.236559139784921513e+01
-5.376344086021480706e+01
-5.376344086021480706e+01
-5.376344086021480706e+01
-5.376344086021480706e+01
-5.806451612903200754e+01
-5.376344086021480706e+01
-5.806451612903200754e+01
-4.946236559139759947e+01
-4.516129032258039899e+01
-4.946236559139759947e+01
-4.086021505376319141e+01
-4.086021505376319141e+01
-3.225806451612878334e+01
-1.935483870967717479e+01
-1.505376344085996898e+01
-2.150537634408357324e+00
-1.075268817204276495e+01
-2.150537634408357324e+00
-6.451612903225561801e+00
-1.075268817204276495e+01
-1.935483870967717479e+01
-2.365591397849437882e+01
-1.935483870967717479e+01
-2.365591397849437882e+01
-2.365591397849437882e+01
-3.655913978494599093e+01
-3.655913978494599093e+01
-4.516129032258039899e+01
-5.376344086021480706e+01
-5.376344086021480706e+01
-5.806451612903200754e+01
-5.806451612903200754e+01
-5.376344086021480706e+01
-4.516129032258039899e+01
-4.946236559139759947e+01
-4.086021505376319141e+01
-4.946236559139759947e+01
-5.376344086021480706e+01
-5.806451612903200754e+01
-5.376344086021480706e+01
-4.946236559139759947e+01
-5.806451612903200754e+01
-7.096774193548361609e+01
-6.236559139784921513e+01
-6.451612903225561801e+00
6.666666666666691299e+01
1.741935483870969961e+02
3.290322580645163271e+02
5.010752688172045168e+02
6.172043010752689725e+02
6.086021505376346568e+02
3.505376344086024005e+02
1.935483870967766151e+01
-2.387096774193545912e+02
-3.591397849462363183e+02
-3.118279569892470704e+02
-2.344086021505373765e+02
-1.698924731182793266e+02
-1.268817204301072792e+02
-7.096774193548361609e+01
-4.946236559139759947e+01
-3.225806451612878334e+01
-3.225806451612878334e+01
-3.225806451612878334e+01
-3.225806451612878334e+01
-1.935483870967717479e+01
-1.935483870967717479e+01
-2.795698924731158286e+01
-2.795698924731158286e+01
-2.365591397849437882e+01
-2.795698924731158286e+01
-2.365591397849437882e+01
-2.365591397849437882e+01
-2.365591397849437882e+01
-1.935483870967717479e+01
-1.935483870967717479e+01
-1.075268817204276495e+01
-1.505376344085996898e+01
-1.075268817204276495e+01
-1.075268817204276495e+01
-6.451612903225561801e+00
-6.451612903225561801e+00
-6.451612903225561801e+00
-6.451612903225561801e+00
-6.451612903225561801e+00
-6.451612903225561801e+00
-6.451612903225561801e+00
-2.150537634408357324e+00
2.150537634408846710e+00
2.150537634408846710e+00
6.451612903226050300e+00
6.451612903226050300e+00
6.451612903226050300e+00
1.075268817204325522e+01
1.505376344086045926e+01
2.365591397849486555e+01
2.365591397849486555e+01
2.795698924731206958e+01
2.795698924731206958e+01
2.365591397849486555e+01
3.225806451612927361e+01
3.225806451612927361e+01
3.655913978494648120e+01
3.655913978494648120e+01
4.086021505376368168e+01
4.086021505376368168e+01
3.655913978494648120e+01
3.655913978494648120e+01
3.655913978494648120e+01
3.655913978494648120e+01
3.655913978494648120e+01
3.225806451612927361e+01
2.365591397849486555e+01
2.795698924731206958e+01
2.365591397849486555e+01
1.935483870967766151e+01
1.505376344086045926e+01
1.075268817204325522e+01
2.150537634408846710e+00
-6.451612903225561801e+00
-6.451612903225561801e+00
-1.505376344085996898e+01
-2.365591397849437882e+01
-2.795698924731158286e+01
-3.225806451612878334e+01
-3.655913978494599093e+01
-4.086021505376319141e+01
-4.086021505376319141e+01
-4.516129032258039899e+01
-4.946236559139759947e+01
-4.516129032258039899e+01
-4.946236559139759947e+01
-4.516129032258039899e+01
-4.946236559139759947e+01
-4.516129032258039899e+01
-5.376344086021480706e+01
-4.516129032258039899e+01
-4.516129032258039899e+01
-4.946236559139759947e+01
-4.516129032258039899e+01
-5.376344086021480706e+01
-4.946236559139759947e+01
-4.946236559139759947e+01
-4.086021505376319141e+01
-3.655913978494599093e+01
-4.516129032258039899e+01
-4.086021505376319141e+01
-4.086021505376319141e+01
-3.655913978494599093e+01
-3.225806451612878334e+01
-3.655913978494599093e+01
-3.655913978494599093e+01
-4.086021505376319141e+01
-3.655913978494599093e+01
-2.795698924731158286e+01
-3.655913978494599093e+01
-2.795698924731158286e+01
-3.655913978494599093e+01
-4.086021505376319141e+01
-4.086021505376319141e+01
-4.086021505376319141e+01
-3.225806451612878334e+01
-3.655913978494599093e+01
-3.655913978494599093e+01
-4.516129032258039899e+01
-4.946236559139759947e+01
-4.946236559139759947e+01
-4.086021505376319141e+01
-4.086021505376319141e+01
-4.946236559139759947e+01
-4.516129032258039899e+01
-4.946236559139759947e+01
-4.946236559139759947e+01
-4.946236559139759947e+01
-4.946236559139759947e+01
-4.946236559139759947e+01
-4.516129032258039899e+01
-5.376344086021480706e+01
-5.376344086021480706e+01
-5.806451612903200754e+01
-5.806451612903200754e+01
-5.806451612903200754e+01
-5.376344086021480706e+01
-5.376344086021480706e+01
-5.376344086021480706e+01
-5.806451612903200754e+01
-5.376344086021480706e+01
-5.376344086021480706e+01
-5.376344086021480706e+01
-5.376344086021480706e+01
-5.376344086021480706e+01
-4.946236559139759947e+01
-5.376344086021480706e+01
-4.946236559139759947e+01
-4.946236559139759947e+01
-5.376344086021480706e+01
-4.946236559139759947e+01
-5.376344086021480706e+01
-5.376344086021480706e+01
-5.376344086021480706e+01
-4.946236559139759947e+01
-4.946236559139759947e+01
-4.946236559139759947e+01
-4.946236559139759947e+01
-4.946236559139759947e+01
-4.946236559139759947e+01
-4.946236559139759947e+01
-4.946236559139759947e+01
-4.946236559139759947e+01
-4.516129032258039899e+01
-4.516129032258039899e+01
-4.086021505376319141e+01
-3.655913978494599093e+01
-2.795698924731158286e+01
-2.365591397849437882e+01
-1.505376344085996898e+01
-1.075268817204276495e+01
-1.075268817204276495e+01
-6.451612903225561801e+00
6.451612903226050300e+00
-2.150537634408357324e+00
-6.451612903225561801e+00
-1.935483870967717479e+01
-1.935483870967717479e+01
-2.365591397849437882e+01
-1.935483870967717479e+01
-1.935483870967717479e+01
-2.795698924731158286e+01
-3.225806451612878334e+01
-4.086021505376319141e+01
-4.946236559139759947e+01
-4.946236559139759947e+01
-4.946236559139759947e+01
-4.946236559139759947e+01
-4.516129032258039899e+01
-4.086021505376319141e+01
-3.655913978494599093e+01
-4.516129032258039899e+01
-4.516129032258039899e+01
-4.946236559139759947e+01
-5.376344086021480706e+01
-4.516129032258039899e+01
-4.946236559139759947e+01
-6.236559139784921513e+01
-7.096774193548361609e+01
-2.795698924731158286e+01
3.655913978494648120e+01
1.268817204301077624e+02
2.559139784946238763e+02
4.279569892473120376e+02
5.569892473118281941e+02
6.172043010752689725e+02
4.924731182795700875e+02
1.612903225806454088e+02
-1.139784946236556635e+02
-3.075268817204298557e+02
-3.247311827956986576e+02
-2.344086021505373765e+02
-1.612903225806448972e+02
-1.182795698924728640e+02
-7.956989247311803126e+01
-4.516129032258039899e+01
-3.225806451612878334e+01
-2.365591397849437882e+01
-2.365591397849437882e+01
-2.365591397849437882e+01
-1.505376344085996898e+01
-6.451612903225561801e+00
-1.505376344085996898e+01
-1.935483870967717479e+01
-1.935483870967717479e+01
-1.505376344085996898e+01
-1.505376344085996898e+01
-1.505376344085996898e+01
-6.451612903225561801e+00
-6.451612903225561801e+00
-1.505376344085996898e+01
-1.075268817204276495e+01
-6.451612903225561801e+00
-1.075268817204276495e+01
-2.150537634408357324e+00
-2.150537634408357324e+00
-2.150537634408357324e+00
-2.150537634408357324e+00
2.150537634408846710e+00
2.150537634408846710e+00
2.150537634408846710e+00
6.451612903226050300e+00
2.150537634408846710e+00
6.451612903226050300e+00
1.075268817204325522e+01
1.505376344086045926e+01
1.935483870967766151e+01
1.935483870967766151e+01
1.505376344086045926e+01
1.935483870967766151e+01
1.935483870967766151e+01
2.365591397849486555e+01
3.225806451612927361e+01
3.225806451612927361e+01
4.086021505376368168e+01
4.086021505376368168e+01
4.086021505376368168e+01
4.516129032258088927e+01
4.516129032258088927e+01
4.946236559139808975e+01
4.946236559139808975e+01
4.946236559139808975e+01
4.946236559139808975e+01
4.516129032258088927e+01
4.946236559139808975e+01
4.516129032258088927e+01
4.086021505376368168e+01
4.086021505376368168e+01
3.655913978494648120e+01
3.225806451612927361e+01
3.225806451612927361e+01
2.365591397849486555e+01
1.505376344086045926e+01
1.505376344086045926e+01
6.451612903226050300e+00
2.150537634408846710e+00
-6.451612903225561801e+00
-1.505376344085996898e+01
-1.505376344085996898e+01
-1.935483870967717479e+01
-2.365591397849437882e+01
-2.795698924731158286e+01
-3.655913978494599093e+01
-4.086021505376319141e+01
-3.655913978494599093e+01
-3.655913978494599093e+01
-3.655913978494599093e+01
-3.655913978494599093e+01
-4.086021505376319141e+01
-4.086021505376319141e+01
-3.655913978494599093e+01
-4.086021505376319141e+01
-3.655913978494599093e+01
-4.516129032258039899e+01
-4.086021505376319141e+01
-4.086021505376319141e+01
-4.086021505376319141e+01
-3.655913978494599093e+01
-3.655913978494599093e+01
-3.655913978494599093e+01
-3.655913978494599093e+01
-3.655913978494599093e+01
-3.225806451612878334e+01
-3.225806451612878334e+01
-2.795698924731158286e+01
-2.795698924731158286e+01
-3.225806451612878334e+01
-2.795698924731158286e+01
-2.795698924731158286e+01
-2.795698924731158286e+01
-2.795698924731158286e+01
-2.795698924731158286e+01
-3.225806451612878334e+01
-3.225806451612878334e+01
-2.795698924731158286e+01
-2.795698924731158286e+01
-3.225806451612878334e+01
-3.225806451612878334e+01
-2.795698924731158286e+01
-3.655913978494599093e+01
-4.086021505376319141e+01
-4.086021505376319141e+01
-4.086021505376319141e+01
-4.516129032258039899e+01
-3.655913978494599093e+01
-4.516129032258039899e+01
-4.516129032258039899e+01
-4.086021505376319141e+01
-4.086021505376319141e+01
-4.516129032258039899e+01
-4.946236559139759947e+01
-4.946236559139759947e+01
-5.806451612903200754e+01
-5.376344086021480706e+01
-4.946236559139759947e+01
-5.376344086021480706e+01
-4.946236559139759947e+01
-4.946236559139759947e+01
-4.946236559139759947e+01
-5.376344086021480706e+01
-5.376344086021480706e+01
-4.946236559139759947e+01
-5.376344086021480706e+01
-4.946236559139759947e+01
-5.376344086021480706e+01
-4.946236559139759947e+01
-5.376344086021480706e+01
-4.946236559139759947e+01
-4.946236559139759947e+01
-4.946236559139759947e+01
-4.946236559139759947e+01
-4.946236559139759947e+01
-4.946236559139759947e+01
-4.946236559139759947e+01
-4.516129032258039899e+01
-4.946236559139759947e+01
-4.516129032258039899e+01
-4.946236559139759947e+01
-4.946236559139759947e+01
-4.516129032258039899e+01
-4.946236559139759947e+01
-4.516129032258039899e+01
-4.946236559139759947e+01
-4.946236559139759947e+01
-4.516129032258039899e+01
-4.946236559139759947e+01
-4.946236559139759947e+01
-4.946236559139759947e+01
-4.946236559139759947e+01
-4.516129032258039899e+01
-4.086021505376319141e+01
-3.655913978494599093e+01
-3.225806451612878334e+01
-1.505376344085996898e+01
-1.505376344085996898e+01
-2.150537634408357324e+00
-6.451612903225561801e+00
-6.451612903225561801e+00
2.150537634408846710e+00
-6.451612903225561801e+00
-1.075268817204276495e+01
-2.365591397849437882e+01
-1.935483870967717479e+01
-1.935483870967717479e+01
-2.365591397849437882e+01
-1.935483870967717479e+01
-3.225806451612878334e+01
-4.516129032258039899e+01
-4.946236559139759947e+01
-5.806451612903200754e+01
-6.236559139784921513e+01
-5.806451612903200754e+01
-5.376344086021480706e+01
-5.376344086021480706e+01
-4.946236559139759947e+01
-4.516129032258039899e+01
-4.946236559139759947e+01
-5.376344086021480706e+01
-5.376344086021480706e+01
-5.806451612903200754e+01
-5.806451612903200754e+01
-5.376344086021480706e+01
-6.236559139784921513e+01
-8.387096774193523174e+01
-5.376344086021480706e+01
1.075268817204325522e+01
1.010752688172045453e+02
2.129032258064518430e+02
3.763440860215055750e+02
5.225806451612905903e+02
5.784946236559142108e+02
5.397849462365593354e+02
2.344086021505378596e+02
-6.666666666666641561e+01
-2.903225806451610538e+02
-3.591397849462363183e+02
-2.516129032258061784e+02
-1.698924731182793266e+02
-1.010752688172040479e+02
-7.096774193548361609e+01
-5.806451612903200754e+01
-4.086021505376319141e+01
-2.795698924731158286e+01
-3.655913978494599093e+01
-3.225806451612878334e+01
-2.365591397849437882e+01
-1.935483870967717479e+01
-2.795698924731158286e+01
-3.225806451612878334e+01
-3.655913978494599093e+01
-2.795698924731158286e+01
-2.795698924731158286e+01
-2.365591397849437882e+01
-1.935483870967717479e+01
-2.365591397849437882e+01
-2.365591397849437882e+01
-1.935483870967717479e+01
-1.935483870967717479e+01
-1.935483870967717479e+01
-1.505376344085996898e+01
-1.505376344085996898e+01
-1.075268817204276495e+01
-1.505376344085996898e+01
-1.505376344085996898e+01
-1.505376344085996898e+01
-1.075268817204276495e+01
-6.451612903225561801e+00
-1.075268817204276495e+01
-6.451612903225561801e+00
-6.451612903225561801e+00
-2.150537634408357324e+00
2.150537634408846710e+00
2.150537634408846710e+00
2.150537634408846710e+00
6.451612903226050300e+00
1.075268817204325522e+01
1.075268817204325522e+01
2.365591397849486555e+01
1.935483870967766151e+01
2.365591397849486555e+01
2.795698924731206958e+01
2.795698924731206958e+01
3.225806451612927361e+01
3.655913978494648120e+01
3.655913978494648120e+01
4.086021505376368168e+01
4.086021505376368168e+01
4.086021505376368168e+01
3.655913978494648120e+01
3.655913978494648120e+01
3.655913978494648120e+01
3.225806451612927361e+01
3.225806451612927361e+01
2.795698924731206958e+01
2.365591397849486555e+01
1.935483870967766151e+01
1.505376344086045926e+01
1.075268817204325522e+01
6.451612903226050300e+00
-2.150537634408357324e+00
-1.075268817204276495e+01
-1.505376344085996898e+01
-2.365591397849437882e+01
-2.795698924731158286e+01
-3.225806451612878334e+01
-3.655913978494599093e+01
-3.655913978494599093e+01
-4.516129032258039899e+01
-4.516129032258039899e+01
-4.516129032258039899e+01
-4.516129032258039899e+01
-4.516129032258039899e+01
-4.516129032258039899e+01
-4.946236559139759947e+01
-5.376344086021480706e+01
-4.946236559139759947e+01
-4.946236559139759947e+01
-4.516129032258039899e+01
-4.086021505376319141e+01
-4.516129032258039899e+01
-4.516129032258039899e+01
-4.516129032258039899e+01
-4.516129032258039899e+01
-4.946236559139759947e+01
-4.946236559139759947e+01
-4.516129032258039899e+01
-4.946236559139759947e+01
-4.516129032258039899e+01
-4.516129032258039899e+01
-4.516129032258039899e+01
-4.516129032258039899e+01
-4.516129032258039899e+01
-4.516129032258039899e+01
-4.516129032258039899e+01
-4.946236559139759947e+01
-4.516129032258039899e+01
-4.946236559139759947e+01
-4.946236559139759947e+01
-4.516129032258039899e+01
-4.946236559139759947e+01
-4.946236559139759947e+01
-4.946236559139759947e+01
-5.376344086021480706e+01
-5.806451612903200754e+01
-5.376344086021480706e+01
-4.946236559139759947e+01
-5.806451612903200754e+01
-5.806451612903200754e+01
-5.806451612903200754e+01
-6.236559139784921513e+01
-5.806451612903200754e+01
-6.236559139784921513e+01
-6.236559139784921513e+01
-5.806451612903200754e+01
-6.236559139784921513e+01
-5.806451612903200754e+01
-6.236559139784921513e+01
-6.666666666666641561e+01
-6.666666666666641561e+01
-6.236559139784921513e+01
-6.236559139784921513e+01
-6.236559139784921513e+01
-6.666666666666641561e+01
-6.666666666666641561e+01
-6.666666666666641561e+01
-7.096774193548361609e+01
-6.666666666666641561e+01
-6.236559139784921513e+01
-6.236559139784921513e+01
-6.236559139784921513e+01
-6.236559139784921513e+01
-6.236559139784921513e+01
-6.236559139784921513e+01
-5.806451612903200754e+01
-6.236559139784921513e+01
-6.236559139784921513e+01
-6.236559139784921513e+01
-6.666666666666641561e+01
-6.236559139784921513e+01
-6.666666666666641561e+01
-5.806451612903200754e+01
-6.236559139784921513e+01
-5.806451612903200754e+01
-5.376344086021480706e+01
-5.806451612903200754e+01
-5.806451612903200754e+01
-5.806451612903200754e+01
-5.806451612903200754e+01
-6.236559139784921513e+01
-5.806451612903200754e+01
-5.806451612903200754e+01
-5.806451612903200754e+01
-5.806451612903200754e+01
-5.806451612903200754e+01
-6.236559139784921513e+01
-5.806451612903200754e+01
-4.946236559139759947e+01
-4.946236559139759947e+01
-4.086021505376319141e+01
-3.225806451612878334e+01
-2.795698924731158286e+01
-2.365591397849437882e+01
-1.505376344085996898e+01
-1.505376344085996898e+01
-1.075268817204276495e+01
-6.451612903225561801e+00
-1.935483870967717479e+01
-2.365591397849437882e+01
-3.655913978494599093e+01
-3.225806451612878334e+01
-2.795698924731158286e+01
-3.225806451612878334e+01
-3.225806451612878334e+01
-4.516129032258039899e+01
-5.806451612903200754e+01
-5.806451612903200754e+01
-6.236559139784921513e+01
-6.666666666666641561e+01
-6.236559139784921513e+01
-6.236559139784921513e+01
-6.236559139784921513e+01
-5.806451612903200754e+01
-5.376344086021480706e+01
-6.666666666666641561e+01
-6.236559139784921513e+01
-6.236559139784921513e+01
-6.236559139784921513e+01
-5.806451612903200754e+01
-6.236559139784921513e+01
-7.956989247311803126e+01
-8.817204301075243222e+01
-3.655913978494599093e+01
3.225806451612927361e+01
1.311827956989249628e+02
2.645161290322582772e+02
4.494623655913980542e+02
5.655913978494626235e+02
6.086021505376346568e+02
4.494623655913980542e+02
9.247311827957013008e+01
-1.784946236559137276e+02
-3.677419354838706909e+02
-3.548387096774191036e+02
-2.516129032258061784e+02
-1.784946236559137276e+02
-1.182795698924728640e+02
-7.956989247311803126e+01
-5.806451612903200754e+01
-4.516129032258039899e+01
-3.655913978494599093e+01
-4.946236559139759947e+01
-3.655913978494599093e+01
-2.795698924731158286e+01
-2.795698924731158286e+01
-2.795698924731158286e+01
-3.655913978494599093e+01
-4.086021505376319141e+01
-3.225806451612878334e+01
-3.225806451612878334e+01
-3.225806451612878334e+01
-2.795698924731158286e+01
-2.795698924731158286e+01
-3.225806451612878334e+01
-2.795698924731158286e+01
-2.795698924731158286e+01
-2.795698924731158286e+01
-2.365591397849437882e+01
-2.365591397849437882e+01
-1.935483870967717479e+01
-1.935483870967717479e+01
-1.505376344085996898e+01
-1.935483870967717479e+01
-1.935483870967717479e+01
-1.505376344085996898e+01
-1.075268817204276495e+01
-1.505376344085996898e+01
-6.451612903225561801e+00
-6.451612903225561801e+00
-6.451612903225561801e+00
-2.150537634408357324e+00
-2.150537634408357324e+00
-2.150537634408357324e+00
-2.150537634408357324e+00
6.451612903226050300e+00
1.075268817204325522e+01
1.505376344086045926e+01
1.935483870967766151e+01
1.935483870967766151e+01
1.935483870967766151e+01
1.935483870967766151e+01
2.795698924731206958e+01
3.225806451612927361e+01
3.225806451612927361e+01
3.225806451612927361e+01
2.365591397849486555e+01
2.365591397849486555e+01
2.365591397849486555e+01
2.795698924731206958e+01
2.365591397849486555e+01
2.365591397849486555e+01
1.935483870967766151e+01
1.075268817204325522e+01
1.505376344086045926e+01
1.075268817204325522e+01
6.451612903226050300e+00
-6.451612903225561801e+00
-1.505376344085996898e+01
-1.935483870967717479e+01
-1.935483870967717479e+01
-2.365591397849437882e+01
-2.795698924731158286e+01
-3.655913978494599093e+01
-3.655913978494599093e+01
-4.516129032258039899e+01
-4.946236559139759947e+01
-4.516129032258039899e+01
-5.376344086021480706e+01
-4.946236559139759947e+01
-4.946236559139759947e+01
-5.376344086021480706e+01
-5.806451612903200754e+01
-5.806451612903200754e+01
-4.946236559139759947e+01
-5.806451612903200754e+01
-4.946236559139759947e+01
-4.516129032258039899e+01
-4.946236559139759947e+01
-5.806451612903200754e+01
-5.376344086021480706e+01
-5.376344086021480706e+01
-4.946236559139759947e+01
-4.086021505376319141e+01
-4.516129032258039899e+01
-4.946236559139759947e+01
-4.516129032258039899e+01
-4.086021505376319141e+01
-3.655913978494599093e+01
-4.086021505376319141e+01
-4.086021505376319141e+01
-4.516129032258039899e+01
-4.086021505376319141e+01
-3.225806451612878334e+01
-3.655913978494599093e+01
-4.086021505376319141e+01
-4.946236559139759947e+01
-4.946236559139759947e+01
-4.946236559139759947e+01
-4.946236559139759947e+01
-4.516129032258039899e+01
-5.806451612903200754e+01
-5.376344086021480706e+01
-5.806451612903200754e+01
-5.806451612903200754e+01
-5.376344086021480706e+01
-5.376344086021480706e+01
-5.806451612903200754e+01
-6.236559139784921513e+01
-5.806451612903200754e+01
-5.806451612903200754e+01
-6.666666666666641561e+01
-5.806451612903200754e+01
-6.236559139784921513e+01
-6.236559139784921513e+01
-5.806451612903200754e+01
-5.806451612903200754e+01
-6.236559139784921513e+01
-6.236559139784921513e+01
-6.236559139784921513e+01
-5.806451612903200754e+01
-6.236559139784921513e+01
-5.806451612903200754e+01
-6.236559139784921513e+01
-6.666666666666641561e+01
-5.806451612903200754e+01
-6.236559139784921513e+01
-6.236559139784921513e+01
-5.806451612903200754e+01
-6.236559139784921513e+01
-6.666666666666641561e+01
-6.236559139784921513e+01
-5.806451612903200754e+01
-5.806451612903200754e+01
-5.376344086021480706e+01
-6.236559139784921513e+01
-6.236559139784921513e+01
-6.666666666666641561e+01
-6.236559139784921513e+01
-5.806451612903200754e+01
-5.806451612903200754e+01
-5.806451612903200754e+01
-6.236559139784921513e+01
-5.806451612903200754e+01
-6.236559139784921513e+01
-6.236559139784921513e+01
-6.236559139784921513e+01
-6.236559139784921513e+01
-5.806451612903200754e+01
-5.376344086021480706e+01
-5.376344086021480706e+01
-4.516129032258039899e+01
-3.225806451612878334e+01
-2.795698924731158286e+01
-2.365591397849437882e+01
-1.075268817204276495e+01
-1.935483870967717479e+01
-1.075268817204276495e+01
-6.451612903225561801e+00
-1.935483870967717479e+01
-1.935483870967717479e+01
-2.795698924731158286e+01
-3.225806451612878334e+01
-2.795698924731158286e+01
-2.795698924731158286e+01
-3.225806451612878334e+01
-4.086021505376319141e+01
-4.946236559139759947e+01
-6.236559139784921513e+01
-6.666666666666641561e+01
-6.236559139784921513e+01
-5.806451612903200754e+01
-4.946236559139759947e+01
-4.946236559139759947e+01
-4.516129032258039899e+01
-5.376344086021480706e+01
-6.236559139784921513e+01
-7.096774193548361609e+01
-5.806451612903200754e+01
-6.236559139784921513e+01
-5.806451612903200754e+01
-7.096774193548361609e+01
-8.817204301075243222e+01
-4.946236559139759947e+01
1.075268817204325522e+01
9.677419354838733057e+01
2.129032258064518430e+02
3.892473118279572191e+02
5.440860215053766069e+02
6.301075268817206734e+02
5.440860215053766069e+02
2.215053763440862440e+02
-8.387096774193523174e+01
-3.075268817204298557e+02
-3.591397849462363183e+02
-2.903225806451610538e+02
-2.129032258064513599e+02
-1.569892473118277110e+02
-1.096774193548384631e+02
-6.666666666666641561e+01
-4.516129032258039899e+01
-4.086021505376319141e+01
-4.516129032258039899e+01
-3.655913978494599093e+01
-2.795698924731158286e+01
-1.505376344085996898e+01
-2.365591397849437882e+01
-2.795698924731158286e+01
-2.795698924731158286e+01
-2.365591397849437882e+01
-1.935483870967717479e+01
-2.795698924731158286e+01
-2.365591397849437882e+01
-2.365591397849437882e+01
-2.365591397849437882e+01
-1.505376344085996898e+01
-1.505376344085996898e+01
-1.505376344085996898e+01
-1.505376344085996898e+01
-1.075268817204276495e+01
-1.505376344085996898e+01
-1.075268817204276495e+01
-1.505376344085996898e+01
-6.451612903225561801e+00
-1.075268817204276495e+01
-6.451612903225561801e+00
-6.451612903225561801e+00
-1.075268817204276495e+01
-2.150537634408357324e+00
2.150537634408846710e+00
2.150537634408846710e+00
6.451612903226050300e+00
6.451612903226050300e+00
1.075268817204325522e+01
1.075268817204325522e+01
1.935483870967766151e+01
1.935483870967766151e+01
1.935483870967766151e+01
2.795698924731206958e+01
2.365591397849486555e+01
2.795698924731206958e+01
2.795698924731206958e+01
3.225806451612927361e+01
3.225806451612927361e+01
3.225806451612927361e+01
3.225806451612927361e+01
3.225806451612927361e+01
3.655913978494648120e+01
3.655913978494648120e+01
3.655913978494648120e+01
3.225806451612927361e+01
2.795698924731206958e+01
2.795698924731206958e+01
1.935483870967766151e+01
1.935483870967766151e+01
1.505376344086045926e+01
1.075268817204325522e+01
6.451612903226050300e+00
-2.150537634408357324e+00
-6.451612903225561801e+00
-1.935483870967717479e+01
-1.935483870967717479e+01
-2.795698924731158286e+01
-2.795698924731158286e+01
-3.655913978494599093e+01
-4.086021505376319141e+01
-4.516129032258039899e+01
-4.516129032258039899e+01
-4.516129032258039899e+01
-4.516129032258039899e+01
-4.516129032258039899e+01
-4.946236559139759947e+01
-4.946236559139759947e+01
-4.946236559139759947e+01
-4.946236559139759947e+01
-4.946236559139759947e+01
-4.516129032258039899e+01
-4.516129032258039899e+01
-4.086021505376319141e+01
-4.516129032258039899e+01
-4.946236559139759947e+01
-4.946236559139759947e+01
-4.086021505376319141e+01
-3.655913978494599093e+01
-4.516129032258039899e+01
-4.516129032258039899e+01
-4.516129032258039899e+01
-4.086021505376319141e+01
-3.225806451612878334e+01
-3.225806451612878334e+01
-3.225806451612878334e+01
-3.225806451612878334e+01
-3.225806451612878334e+01
-3.225806451612878334e+01
-2.795698924731158286e+01
-2.795698924731158286e+01
-3.225806451612878334e+01
-3.225806451612878334e+01
-3.655913978494599093e+01
-3.655913978494599093e+01
-3.655913978494599093e+01
-3.655913978494599093e+01
-3.655913978494599093e+01
-3.655913978494599093e+01
-4.516129032258039899e+01
-4.516129032258039899e+01
-4.086021505376319141e+01
-4.516129032258039899e+01
-4.516129032258039899e+01
-4.516129032258039899e+01
-4.516129032258039899e+01
-4.946236559139759947e+01
-4.516129032258039899e+01
-4.516129032258039899e+01
-4.946236559139759947e+01
-4.516129032258039899e+01
-4.516129032258039899e+01
-5.376344086021480706e+01
-4.516129032258039899e+01
-4.516129032258039899e+01
-4.946236559139759947e+01
-4.086021505376319141e+01
-4.946236559139759947e+01
-5.376344086021480706e+01
-4.946236559139759947e+01
-4.946236559139759947e+01
-4.946236559139759947e+01
-4.946236559139759947e+01
-4.946236559139759947e+01
-4.946236559139759947e+01
-4.946236559139759947e+01
-4.516129032258039899e+01
-4.086021505376319141e+01
-4.086021505376319141e+01
-4.516129032258039899e+01
-4.516129032258039899e+01
-4.516129032258039899e+01
-4.946236559139759947e+01
-4.516129032258039899e+01
-4.516129032258039899e+01
-4.946236559139759947e+01
-4.086021505376319141e+01
-4.516129032258039899e+01
-4.516129032258039899e+01
-4.516129032258039899e+01
-4.946236559139759947e+01
-4.086021505376319141e+01
-4.086021505376319141e+01
-3.225806451612878334e+01
-2.795698924731158286e+01
-2.365591397849437882e+01
-1.075268817204276495e+01
-1.075268817204276495e+01
-2.150537634408357324e+00
-2.150537634408357324e+00
-2.150537634408357324e+00
2.150537634408846710e+00
-2.150537634408357324e+00
-1.075268817204276495e+01
-1.935483870967717479e+01
-1.075268817204276495e+01
-1.075268817204276495e+01
-1.935483870967717479e+01
-1.935483870967717479e+01
-2.795698924731158286e+01
-3.655913978494599093e+01
-4.086021505376319141e+01
-4.086021505376319141e+01
-4.516129032258039899e+01
-4.516129032258039899e+01
-4.086021505376319141e+01
-4.086021505376319141e+01
-3.655913978494599093e+01
-3.225806451612878334e+01
-4.086021505376319141e+01
-4.946236559139759947e+01
-5.376344086021480706e+01
-4.516129032258039899e+01
-4.946236559139759947e+01
-4.516129032258039899e+01
-6.666666666666641561e+01
-6.236559139784921513e+01
-2.150537634408357324e+00
7.526881720430131395e+01
1.827956989247314254e+02
3.247311827956991692e+02
4.924731182795700875e+02
5.741935483870969392e+02
5.870967741935486401e+02
3.505376344086024005e+02
2.365591397849486555e+01
-2.129032258064513599e+02
-3.462365591397846742e+02
-2.774193548387094097e+02
-1.870967741935481286e+02
-1.225806451612900645e+02
-7.956989247311803126e+01
-5.376344086021480706e+01
-4.086021505376319141e+01
-2.365591397849437882e+01
-2.795698924731158286e+01
-3.225806451612878334e+01
-1.935483870967717479e+01
-1.935483870967717479e+01
-1.505376344085996898e+01
-1.935483870967717479e+01
-2.365591397849437882e+01
-2.365591397849437882e+01
-2.365591397849437882e+01
-1.935483870967717479e+01
-1.935483870967717479e+01
-1.505376344085996898e+01
-1.505376344085996898e+01
-1.505376344085996898e+01
-1.075268817204276495e+01
-1.075268817204276495e+01
-1.075268817204276495e+01
-1.075268817204276495e+01
-6.451612903225561801e+00
-1.075268817204276495e+01
-6.451612903225561801e+00
-6.451612903225561801e+00
-2.150537634408357324e+00
-2.150537634408357324e+00
2.150537634408846710e+00
2.150537634408846710e+00
-2.150537634408357324e+00
2.150537634408846710e+00
1.075268817204325522e+01
6.451612903226050300e+00
1.075268817204325522e+01
1.505376344086045926e+01
1.075268817204325522e+01
1.935483870967766151e+01
2.365591397849486555e+01
2.795698924731206958e+01
3.225806451612927361e+01
3.655913978494648120e+01
3.655913978494648120e+01
3.655913978494648120e+01
4.086021505376368168e+01
4.086021505376368168e+01
4.516129032258088927e+01
4.516129032258088927e+01
4.946236559139808975e+01
4.086021505376368168e+01
3.655913978494648120e+01
4.086021505376368168e+01
4.086021505376368168e+01
3.655913978494648120e+01
3.225806451612927361e+01
3.225806451612927361e+01
2.365591397849486555e+01
2.365591397849486555e+01
1.505376344086045926e+01
6.451612903226050300e+00
2.150537634408846710e+00
-6.451612903225561801e+00
-6.451612903225561801e+00
-1.505376344085996898e+01
-2.365591397849437882e+01
-2.365591397849437882e+01
-3.225806451612878334e+01
-3.225806451612878334e+01
-3.655913978494599093e+01
-3.655913978494599093e+01
-3.655913978494599093e+01
-4.086021505376319141e+01
-3.655913978494599093e+01
-4.086021505376319141e+01
-4.086021505376319141e+01
-4.516129032258039899e+01
-4.086021505376319141e+01
-4.516129032258039899e+01
-4.086021505376319141e+01
-3.655913978494599093e+01
-4.086021505376319141e+01
-4.086021505376319141e+01
-3.655913978494599093e+01
-4.086021505376319141e+01
-3.655913978494599093e+01
-4.086021505376319141e+01
-3.655913978494599093e+01
-3.655913978494599093e+01
-3.655913978494599093e+01
-3.225806451612878334e+01
-3.655913978494599093e+01
-3.225806451612878334e+01
-3.225806451612878334e+01
-3.655913978494599093e+01
-3.225806451612878334e+01
-3.655913978494599093e+01
-3.225806451612878334e+01
-3.225806451612878334e+01
-3.225806451612878334e+01
-3.655913978494599093e+01
-4.086021505376319141e+01
-4.086021505376319141e+01
-4.086021505376319141e+01
-3.655913978494599093e+01
-4.086021505376319141e+01
-3.655913978494599093e+01
-4.516129032258039899e+01
-4.946236559139759947e+01
-4.946236559139759947e+01
-4.946236559139759947e+01
-4.946236559139759947e+01
-4.946236559139759947e+01
-4.516129032258039899e+01
-5.376344086021480706e+01
-4.946236559139759947e+01
-4.946236559139759947e+01
-4.946236559139759947e+01
-4.946236559139759947e+01
-4.946236559139759947e+01
-4.946236559139759947e+01
-5.806451612903200754e+01
-5.376344086021480706e+01
-5.376344086021480706e+01
-5.376344086021480706e+01
-4.946236559139759947e+01
-5.376344086021480706e+01
-5.376344086021480706e+01
-5.376344086021480706e+01
-5.376344086021480706e+01
-4.946236559139759947e+01
-4.946236559139759947e+01
-5.376344086021480706e+01
-5.376344086021480706e+01
-5.376344086021480706e+01
-5.376344086021480706e+01
-4.946236559139759947e+01
-5.376344086021480706e+01
-4.946236559139759947e+01
-4.946236559139759947e+01
-5.376344086021480706e+01
-4.946236559139759947e+01
-4.946236559139759947e+01
-4.946236559139759947e+01
-4.946236559139759947e+01
-4.946236559139759947e+01
-4.946236559139759947e+01
-4.946236559139759947e+01
-4.946236559139759947e+01
-4.516129032258039899e+01
-4.946236559139759947e+01
-4.516129032258039899e+01
-4.516129032258039899e+01
-5.376344086021480706e+01
-4.946236559139759947e+01
-4.516129032258039899e+01
-4.516129032258039899e+01
-3.655913978494599093e+01
-2.795698924731158286e+01
-1.505376344085996898e+01
-1.935483870967717479e+01
-6.451612903225561801e+00
-2.150537634408357324e+00
2.150537634408846710e+00
2.150537634408846710e+00
-2.150537634408357324e+00
-1.505376344085996898e+01
-2.795698924731158286e+01
-2.365591397849437882e+01
-1.935483870967717479e+01
-2.365591397849437882e+01
-2.795698924731158286e+01
-3.225806451612878334e+01
-4.946236559139759947e+01
-4.946236559139759947e+01
-5.376344086021480706e+01
-5.806451612903200754e+01
-5.376344086021480706e+01
-4.946236559139759947e+01
-4.946236559139759947e+01
-5.376344086021480706e+01
-4.516129032258039899e+01
-5.376344086021480706e+01
-5.806451612903200754e+01
-5.376344086021480706e+01
-5.806451612903200754e+01
-5.376344086021480706e+01
-4.946236559139759947e+01
-5.806451612903200754e+01
-7.956989247311803126e+01
-3.655913978494599093e+01
3.225806451612927361e+01
1.311827956989249628e+02
2.473118279569894753e+02
4.322580645161292523e+02
5.569892473118281941e+02
6.043010752688173852e+02
4.967741935483873021e+02
1.440860215053765785e+02
-1.354838709677416944e+02
-3.462365591397846742e+02
-3.462365591397846742e+02
-2.387096774193545912e+02
-1.612903225806448972e+02
-9.247311827956964692e+01
-7.526881720430083078e+01
-4.946236559139759947e+01
-4.086021505376319141e+01
-2.795698924731158286e+01
-3.655913978494599093e+01
-2.795698924731158286e+01
-1.935483870967717479e+01
-2.365591397849437882e+01
-2.365591397849437882e+01
-2.795698924731158286e+01
-3.225806451612878334e+01
-2.795698924731158286e+01
-2.365591397849437882e+01
-2.795698924731158286e+01
-2.365591397849437882e+01
-1.505376344085996898e+01
-2.365591397849437882e+01
-1.505376344085996898e+01
-1.935483870967717479e+01
-1.935483870967717479e+01
-1.505376344085996898e+01
-1.505376344085996898e+01
-1.075268817204276495e+01
-1.075268817204276495e+01
-6.451612903225561801e+00
-1.075268817204276495e+01
-1.075268817204276495e+01
-6.451612903225561801e+00
-6.451612903225561801e+00
-2.150537634408357324e+00
-2.150537634408357324e+00
2.150537634408846710e+00
2.150537634408846710e+00
6.451612903226050300e+00
6.451612903226050300e+00
1.075268817204325522e+01
1.075268817204325522e+01
1.505376344086045926e+01
1.935483870967766151e+01
1.935483870967766151e+01
2.365591397849486555e+01
2.365591397849486555e+01
2.795698924731206958e+01
3.225806451612927361e+01
3.225806451612927361e+01
2.795698924731206958e+01
3.225806451612927361e+01
3.655913978494648120e+01
3.655913978494648120e+01
4.086021505376368168e+01
3.655913978494648120e+01
3.225806451612927361e+01
2.795698924731206958e+01
2.795698924731206958e+01
2.795698924731206958e+01
2.365591397849486555e+01
1.935483870967766151e+01
1.505376344086045926e+01
2.150537634408846710e+00
2.150537634408846710e+00
-2.150537634408357324e+00
-6.451612903225561801e+00
-1.075268817204276495e+01
-1.935483870967717479e+01
-2.795698924731158286e+01
-3.655913978494599093e+01
-3.655913978494599093e+01
-4.086021505376319141e+01
-3.655913978494599093e+01
-3.655913978494599093e+01
-3.655913978494599093e+01
-4.516129032258039899e+01
-4.516129032258039899e+01
-4.516129032258039899e+01
-4.516129032258039899e+01
-4.086021505376319141e+01
-4.946236559139759947e+01
-4.516129032258039899e+01
-4.516129032258039899e+01
-4.946236559139759947e+01
-4.516129032258039899e+01
-4.946236559139759947e+01
-4.946236559139759947e+01
-4.946236559139759947e+01
-4.946236559139759947e+01
-4.086021505376319141e+01
-4.516129032258039899e+01
-4.516129032258039899e+01
-4.516129032258039899e+01
-4.086021505376319141e+01
-4.086021505376319141e+01
-3.655913978494599093e+01
-3.655913978494599093e+01
-4.516129032258039899e+01
-4.086021505376319141e+01
-4.516129032258039899e+01
-4.516129032258039899e+01
-4.946236559139759947e+01
-4.946236559139759947e+01
-5.376344086021480706e+01
-5.376344086021480706e+01
-4.946236559139759947e+01
-5.376344086021480706e+01
-5.806451612903200754e+01
-5.376344086021480706e+01
-5.806451612903200754e+01
-5.376344086021480706e+01
-4.946236559139759947e+01
-5.376344086021480706e+01
-6.236559139784921513e+01
-6.236559139784921513e+01
-5.806451612903200754e+01
-6.236559139784921513e+01
-6.236559139784921513e+01
-5.806451612903200754e+01
-7.096774193548361609e+01
-6.666666666666641561e+01
-6.666666666666641561e+01
-6.236559139784921513e+01
-6.666666666666641561e+01
-6.236559139784921513e+01
-6.666666666666641561e+01
-5.806451612903200754e+01
-6.236559139784921513e+01
-5.806451612903200754e+01
-5.806451612903200754e+01
-5.806451612903200754e+01
-5.376344086021480706e+01
-5.806451612903200754e+01
-5.376344086021480706e+01
-6.666666666666641561e+01
-5.806451612903200754e+01
-6.236559139784921513e+01
-5.806451612903200754e+01
-4.946236559139759947e+01
-5.806451612903200754e+01
-6.236559139784921513e+01
-6.236559139784921513e+01
-6.666666666666641561e+01
-5.806451612903200754e+01
-5.806451612903200754e+01
-6.236559139784921513e+01
-5.806451612903200754e+01
-5.806451612903200754e+01
-5.376344086021480706e+01
-4.946236559139759947e+01
-5.806451612903200754e+01
-6.236559139784921513e+01
-6.666666666666641561e+01
-6.236559139784921513e+01
-4.946236559139759947e+01
-4.946236559139759947e+01
-5.376344086021480706e+01
-4.516129032258039899e+01
-4.516129032258039899e+01
-4.946236559139759947e+01
-4.086021505376319141e+01
-3.225806451612878334e+01
-2.795698924731158286e+01
-1.935483870967717479e+01
-2.150537634408357324e+00
-1.075268817204276495e+01
-2.150537634408357324e+00
2.150537634408846710e+00
-1.505376344085996898e+01
-2.365591397849437882e+01
-2.795698924731158286e+01
-2.365591397849437882e+01
-1.935483870967717479e+01
-1.935483870967717479e+01
-3.225806451612878334e+01
-4.086021505376319141e+01
-5.376344086021480706e+01
-5.806451612903200754e+01
-6.236559139784921513e+01
-6.236559139784921513e+01
-5.806451612903200754e+01
-5.376344086021480706e+01
-4.946236559139759947e+01
-4.516129032258039899e+01
-4.946236559139759947e+01
-5.806451612903200754e+01
-6.236559139784921513e+01
-6.666666666666641561e+01
-5.806451612903200754e+01
-5.806451612903200754e+01
-5.376344086021480706e+01
-8.387096774193523174e+01
-7.096774193548361609e+01
-6.451612903225561801e+00
4.946236559139808975e+01
1.569892473118281941e+02
3.118279569892475251e+02
4.881720430107529296e+02
6.086021505376346568e+02
6.258064516129034018e+02
3.806451612903227897e+02
3.225806451612927361e+01
-2.344086021505373765e+02
-3.720430107526879056e+02
-3.333333333333330870e+02
-2.473118279569889921e+02
-1.741935483870965129e+02
-1.354838709677416944e+02
-7.526881720430083078e+01
-5.376344086021480706e+01
-3.655913978494599093e+01
-3.655913978494599093e+01
-4.086021505376319141e+01
-2.795698924731158286e+01
-2.795698924731158286e+01
-1.935483870967717479e+01
-2.795698924731158286e+01
-3.225806451612878334e+01
-3.225806451612878334e+01
-2.365591397849437882e+01
-3.225806451612878334e+01
-2.795698924731158286e+01
-1.935483870967717479e+01
-2.365591397849437882e+01
-1.935483870967717479e+01
-1.935483870967717479e+01
-1.505376344085996898e+01
-1.505376344085996898e+01
-1.505376344085996898e+01
-1.505376344085996898e+01
-1.505376344085996898e+01
-1.075268817204276495e+01
-6.451612903225561801e+00
-6.451612903225561801e+00
-6.451612903225561801e+00
-6.451612903225561801e+00
-6.451612903225561801e+00
-6.451612903225561801e+00
-2.150537634408357324e+00
2.150537634408846710e+00
-2.150537634408357324e+00
2.150537634408846710e+00
1.075268817204325522e+01
6.451612903226050300e+00
1.075268817204325522e+01
1.505376344086045926e+01
1.935483870967766151e+01
2.365591397849486555e+01
2.795698924731206958e+01
2.795698924731206958e+01
3.225806451612927361e+01
2.795698924731206958e+01
3.225806451612927361e+01
3.655913978494648120e+01
3.225806451612927361e+01
3.655913978494648120e+01
3.225806451612927361e+01
3.225806451612927361e+01
2.795698924731206958e+01
2.795698924731206958e+01
3.225806451612927361e+01
2.795698924731206958e+01
2.795698924731206958e+01
2.795698924731206958e+01
2.365591397849486555e+01
1.505376344086045926e+01
1.075268817204325522e+01
6.451612903226050300e+00
-2.150537634408357324e+00
-6.451612903225561801e+00
-1.505376344085996898e+01
-1.935483870967717479e+01
-2.365591397849437882e+01
-2.795698924731158286e+01
-3.225806451612878334e+01
-4.086021505376319141e+01
-4.086021505376319141e+01
-4.516129032258039899e+01
-4.086021505376319141e+01
-4.086021505376319141e+01
-4.516129032258039899e+01
-4.946236559139759947e+01
-5.376344086021480706e+01
-4.946236559139759947e+01
-4.946236559139759947e+01
-4.946236559139759947e+01
-4.946236559139759947e+01
-4.516129032258039899e+01
-4.946236559139759947e+01
-4.086021505376319141e+01
-4.086021505376319141e+01
-4.086021505376319141e+01
-3.655913978494599093e+01
-4.086021505376319141e+01
-4.086021505376319141e+01
-3.655913978494599093e+01
-3.655913978494599093e+01
-3.225806451612878334e+01
-3.655913978494599093e+01
-3.655913978494599093e+01
-3.655913978494599093e+01
-3.655913978494599093e+01
-2.795698924731158286e+01
-3.225806451612878334e+01
-3.225806451612878334e+01
-3.655913978494599093e+01
-3.655913978494599093e+01
-4.086021505376319141e+01
-4.086021505376319141e+01
-4.086021505376319141e+01
-4.086021505376319141e+01
-4.086021505376319141e+01
-4.086021505376319141e+01
-4.516129032258039899e+01
-4.516129032258039899e+01
-4.086021505376319141e+01
-4.946236559139759947e+01
-4.946236559139759947e+01
-4.946236559139759947e+01
-5.376344086021480706e+01
-4.946236559139759947e+01
-4.946236559139759947e+01
-5.376344086021480706e+01
-4.946236559139759947e+01
-4.946236559139759947e+01
-4.946236559139759947e+01
-5.376344086021480706e+01
-5.376344086021480706e+01
-4.946236559139759947e+01
-4.946236559139759947e+01
-5.376344086021480706e+01
-4.946236559139759947e+01
-5.376344086021480706e+01
-5.376344086021480706e+01
-4.946236559139759947e+01
-5.376344086021480706e+01
-4.946236559139759947e+01
-4.946236559139759947e+01
-4.946236559139759947e+01
-4.946236559139759947e+01
-4.946236559139759947e+01
-4.946236559139759947e+01
-4.946236559139759947e+01
-5.376344086021480706e+01
-4.946236559139759947e+01
-5.376344086021480706e+01
-4.516129032258039899e+01
-4.516129032258039899e+01
-4.086021505376319141e+01
-4.516129032258039899e+01
-4.946236559139759947e+01
-4.516129032258039899e+01
-4.946236559139759947e+01
-4.516129032258039899e+01
-4.086021505376319141e+01
-4.086021505376319141e+01
-4.086021505376319141e+01
-3.225806451612878334e+01
-1.935483870967717479e+01
-1.935483870967717479e+01
-1.075268817204276495e+01
2.150537634408846710e+00
-2.150537634408357324e+00
6.451612903226050300e+00
6.451612903226050300e+00
-6.451612903225561801e+00
-1.505376344085996898e+01
-1.505376344085996898e+01
-1.505376344085996898e+01
-1.075268817204276495e+01
-1.505376344085996898e+01
-1.935483870967717479e+01
-2.795698924731158286e+01
-3.655913978494599093e+01
-3.655913978494599093e+01
-4.516129032258039899e+01
-4.516129032258039899e+01
-4.516129032258039899e+01
-4.516129032258039899e+01
-4.516129032258039899e+01
-3.655913978494599093e+01
-3.655913978494599093e+01
-4.516129032258039899e+01
-5.376344086021480706e+01
-5.376344086021480706e+01
-4.946236559139759947e+01
-4.516129032258039899e+01
-4.516129032258039899e+01
-6.666666666666641561e+01
-4.946236559139759947e+01
6.451612903226050300e+00
8.387096774193572912e+01
1.870967741935486117e+02
3.548387096774195584e+02
5.182795698924733188e+02
6.043010752688173852e+02
5.784946236559142108e+02
2.989247311827959379e+02
-2.365591397849437882e+01
-2.516129032258061784e+02
-3.462365591397846742e+02
-2.688172043010749803e+02
-1.827956989247309139e+02
-1.268817204301072792e+02
-8.387096774193523174e+01
-5.376344086021480706e+01
-4.086021505376319141e+01
-2.365591397849437882e+01
-3.225806451612878334e+01
-2.795698924731158286e+01
-1.935483870967717479e+01
-1.505376344085996898e+01
-1.505376344085996898e+01
-1.935483870967717479e+01
-2.365591397849437882e+01
-1.935483870967717479e+01
-1.935483870967717479e+01
-2.365591397849437882e+01
-1.075268817204276495e+01
-1.075268817204276495e+01
-1.505376344085996898e+01
-1.075268817204276495e+01
-1.505376344085996898e+01
-1.075268817204276495e+01
-1.075268817204276495e+01
-6.451612903225561801e+00
-6.451612903225561801e+00
-6.451612903225561801e+00
-6.451612903225561801e+00
-6.451612903225561801e+00
-2.150537634408357324e+00
-2.150537634408357324e+00
2.150537634408846710e+00
-2.150537634408357324e+00
2.150537634408846710e+00
2.150537634408846710e+00
1.075268817204325522e+01
1.075268817204325522e+01
1.075268817204325522e+01
1.505376344086045926e+01
1.505376344086045926e+01
1.935483870967766151e+01
2.365591397849486555e+01
2.365591397849486555e+01
2.795698924731206958e+01
3.225806451612927361e+01
3.655913978494648120e+01
3.655913978494648120e+01
3.655913978494648120e+01
3.655913978494648120e+01
4.086021505376368168e+01
4.086021505376368168e+01
4.086021505376368168e+01
4.086021505376368168e+01
3.655913978494648120e+01
3.225806451612927361e+01
3.225806451612927361e+01
2.795698924731206958e+01
3.225806451612927361e+01
3.225806451612927361e+01
2.795698924731206958e+01
1.505376344086045926e+01
6.451612903226050300e+00
2.150537634408846710e+00
-1.075268817204276495e+01
-1.505376344085996898e+01
-2.365591397849437882e+01
-3.225806451612878334e+01
-4.086021505376319141e+01
-4.516129032258039899e+01
-6.666666666666641561e+01
-7.526881720430083078e+01
-7.956989247311803126e+01
-8.387096774193523174e+01
-7.526881720430083078e+01
-6.236559139784921513e+01
-6.236559139784921513e+01
-5.806451612903200754e+01
-5.376344086021480706e+01
-4.946236559139759947e+01
-4.086021505376319141e+01
-3.655913978494599093e+01
-2.795698924731158286e+01
-4.086021505376319141e+01
-4.516129032258039899e+01
-4.516129032258039899e+01
-4.516129032258039899e+01
-3.655913978494599093e+01
-3.655913978494599093e+01
-2.795698924731158286e+01
-2.365591397849437882e+01
-2.365591397849437882e+01
-2.365591397849437882e+01
-2.795698924731158286e+01
-3.655913978494599093e+01
-2.795698924731158286e+01
-1.935483870967717479e+01
-1.935483870967717479e+01
-3.655913978494599093e+01
-2.365591397849437882e+01
1.935483870967766151e+01
6.666666666666691299e+01
1.440860215053765785e+02
2.989247311827959379e+02
5.225806451612905903e+02
6.473118279569894185e+02
6.301075268817206734e+02
3.290322580645163271e+02
-8.387096774193523174e+01
-3.376344086021502449e+02
-3.720430107526879056e+02
-2.301075268817201618e+02
-1.225806451612900645e+02
-5.376344086021480706e+01
-5.806451612903200754e+01
-4.946236559139759947e+01
-2.795698924731158286e+01
-1.505376344085996898e+01
-1.935483870967717479e+01
-3.225806451612878334e+01
-1.935483870967717479e+01
-1.075268817204276495e+01
-1.935483870967717479e+01
-2.365591397849437882e+01
-2.795698924731158286e+01
-2.365591397849437882e+01
-2.365591397849437882e+01
-1.935483870967717479e+01
-1.505376344085996898e+01
-2.365591397849437882e+01
-2.365591397849437882e+01
-1.935483870967717479e+01
-1.935483870967717479e+01
-1.505376344085996898e+01
-1.505376344085996898e+01
-1.505376344085996898e+01
-1.505376344085996898e+01
-1.505376344085996898e+01
-1.505376344085996898e+01
-1.505376344085996898e+01
-1.505376344085996898e+01
-1.075268817204276495e+01
-1.505376344085996898e+01
-1.505376344085996898e+01
-1.075268817204276495e+01
-1.075268817204276495e+01
-6.451612903225561801e+00
-2.150537634408357324e+00
2.150537634408846710e+00
6.451612903226050300e+00
6.451612903226050300e+00
6.451612903226050300e+00
1.075268817204325522e+01
1.075268817204325522e+01
1.505376344086045926e+01
1.935483870967766151e+01
1.935483870967766151e+01
1.935483870967766151e+01
1.935483870967766151e+01
2.365591397849486555e+01
1.935483870967766151e+01
2.365591397849486555e+01
2.365591397849486555e+01
2.365591397849486555e+01
1.935483870967766151e+01
1.935483870967766151e+01
1.505376344086045926e+01
6.451612903226050300e+00
2.150537634408846710e+00
-2.150537634408357324e+00
-1.505376344085996898e+01
-2.365591397849437882e+01
-2.365591397849437882e+01
-3.655913978494599093e+01
-4.086021505376319141e+01
-4.516129032258039899e+01
-4.946236559139759947e+01
-5.376344086021480706e+01
-5.806451612903200754e+01
-5.376344086021480706e+01
-5.806451612903200754e+01
-5.806451612903200754e+01
-5.376344086021480706e+01
-6.236559139784921513e+01
-6.236559139784921513e+01
-6.666666666666641561e+01
-6.666666666666641561e+01
-6.236559139784921513e+01
-6.236559139784921513e+01
-5.806451612903200754e+01
-5.806451612903200754e+01
-5.806451612903200754e+01
-5.376344086021480706e+01
-5.806451612903200754e+01
-5.806451612903200754e+01
-5.806451612903200754e+01
-5.806451612903200754e+01
-5.806451612903200754e+01
-5.806451612903200754e+01
-6.236559139784921513e+01
-6.236559139784921513e+01
-6.236559139784921513e+01
-6.236559139784921513e+01
-6.236559139784921513e+01
-5.806451612903200754e+01
-6.236559139784921513e+01
-6.236559139784921513e+01
-6.236559139784921513e+01
-6.666666666666641561e+01
-6.666666666666641561e+01
-7.096774193548361609e+01
-6.666666666666641561e+01
-6.236559139784921513e+01
-6.666666666666641561e+01
-6.666666666666641561e+01
-6.666666666666641561e+01
-6.666666666666641561e+01
-7.526881720430083078e+01
-6.666666666666641561e+01
-6.666666666666641561e+01
-6.666666666666641561e+01
-6.666666666666641561e+01
-7.096774193548361609e+01
-7.096774193548361609e+01
-7.096774193548361609e+01
-6.666666666666641561e+01
-6.666666666666641561e+01
-6.666666666666641561e+01
-7.096774193548361609e+01
-6.666666666666641561e+01
-6.666666666666641561e+01
-6.666666666666641561e+01
-6.666666666666641561e+01
-7.096774193548361609e+01
-7.096774193548361609e+01
-7.096774193548361609e+01
-7.096774193548361609e+01
-7.096774193548361609e+01
-7.096774193548361609e+01
-6.666666666666641561e+01
-6.236559139784921513e+01
-6.666666666666641561e+01
-6.236559139784921513e+01
-6.236559139784921513e+01
-6.236559139784921513e+01
-6.666666666666641561e+01
-6.666666666666641561e+01
-6.666666666666641561e+01
-6.666666666666641561e+01
-6.666666666666641561e+01
-6.666666666666641561e+01
-6.666666666666641561e+01
-6.236559139784921513e+01
-6.236559139784921513e+01
-6.666666666666641561e+01
-6.666666666666641561e+01
-6.236559139784921513e+01
-6.236559139784921513e+01
-5.806451612903200754e+01
-5.806451612903200754e+01
-5.806451612903200754e+01
-6.236559139784921513e+01
-6.236559139784921513e+01
-5.806451612903200754e+01
-6.236559139784921513e+01
-6.236559139784921513e+01
-6.236559139784921513e+01
-6.236559139784921513e+01
-6.236559139784921513e+01
-5.806451612903200754e+01
-5.806451612903200754e+01
-5.806451612903200754e+01
-5.806451612903200754e+01
-6.236559139784921513e+01
-6.236559139784921513e+01
-6.666666666666641561e+01
-5.806451612903200754e+01
-5.806451612903200754e+01
-5.806451612903200754e+01
-6.236559139784921513e+01
-6.236559139784921513e+01
-6.236559139784921513e+01
-6.236559139784921513e+01
-5.806451612903200754e+01
-5.806451612903200754e+01
-5.376344086021480706e+01
-5.806451612903200754e+01
-5.376344086021480706e+01
-5.376344086021480706e+01
-4.946236559139759947e+01
-4.946236559139759947e+01
-5.376344086021480706e+01
-4.946236559139759947e+01
-5.806451612903200754e+01
-5.376344086021480706e+01
-5.376344086021480706e+01
-5.376344086021480706e+01
-5.376344086021480706e+01
-4.946236559139759947e+01
-5.376344086021480706e+01
-5.376344086021480706e+01
-5.376344086021480706e+01
-5.376344086021480706e+01
-5.376344086021480706e+01
-5.376344086021480706e+01
-5.376344086021480706e+01
-4.946236559139759947e+01
-4.946236559139759947e+01
-4.086021505376319141e+01
-3.225806451612878334e+01
-2.365591397849437882e+01
-1.935483870967717479e+01
-1.505376344085996898e+01
-2.150537634408357324e+00
-6.451612903225561801e+00
6.451612903226050300e+00
2.150537634408846710e+00
-1.075268817204276495e+01
-2.365591397849437882e+01
-2.365591397849437882e+01
-2.365591397849437882e+01
-2.365591397849437882e+01
-2.365591397849437882e+01
-3.225806451612878334e+01
-4.086021505376319141e+01
-5.376344086021480706e+01
-5.806451612903200754e+01
-5.806451612903200754e+01
-5.376344086021480706e+01
-5.806451612903200754e+01
-4.946236559139759947e+01
-4.946236559139759947e+01
-4.946236559139759947e+01
-5.376344086021480706e+01
-5.376344086021480706e+01
-6.236559139784921513e+01
-5.806451612903200754e+01
-5.806451612903200754e+01
-5.806451612903200754e+01
-7.956989247311803126e+01
-7.526881720430083078e+01
-1.935483870967717479e+01
4.946236559139808975e+01
1.569892473118281941e+02
2.817204301075271360e+02
4.494623655913980542e+02
5.440860215053766069e+02
5.741935483870969392e+02
3.806451612903227897e+02
4.516129032258088927e+01
-2.086021505376341452e+02
-3.763440860215051202e+02
-3.333333333333330870e+02
-2.301075268817201618e+02
-1.526881720430104963e+02
-1.053763440860212484e+02
-7.096774193548361609e+01
-5.376344086021480706e+01
-4.516129032258039899e+01
-4.086021505376319141e+01
-4.516129032258039899e+01
-3.655913978494599093e+01
-2.795698924731158286e+01
-2.795698924731158286e+01
-3.655913978494599093e+01
-3.655913978494599093e+01
-3.655913978494599093e+01
-3.225806451612878334e+01
-3.225806451612878334e+01
-3.225806451612878334e+01
-3.225806451612878334e+01
-3.225806451612878334e+01
-2.795698924731158286e+01
-3.225806451612878334e+01
-3.225806451612878334e+01
-2.795698924731158286e+01
-2.795698924731158286e+01
-3.225806451612878334e+01
-2.365591397849437882e+01
-2.365591397849437882e+01
-2.365591397849437882e+01
-2.365591397849437882e+01
-2.365591397849437882e+01
-1.935483870967717479e+01
-2.795698924731158286e+01
-2.365591397849437882e+01
-1.935483870967717479e+01
-1.935483870967717479e+01
-1.505376344085996898e+01
-1.075268817204276495e+01
-6.451612903225561801e+00
-6.451612903225561801e+00
-2.150537634408357324e+00
-2.150537634408357324e+00
-2.150537634408357324e+00
2.150537634408846710e+00
2.150537634408846710e+00
2.150537634408846710e+00
6.451612903226050300e+00
2.150537634408846710e+00
1.075268817204325522e+01
1.505376344086045926e+01
6.451612903226050300e+00
1.075268817204325522e+01
6.451612903226050300e+00
1.075268817204325522e+01
1.505376344086045926e+01
1.935483870967766151e+01
1.505376344086045926e+01
1.505376344086045926e+01
1.505376344086045926e+01
1.505376344086045926e+01
1.505376344086045926e+01
1.935483870967766151e+01
2.365591397849486555e+01
2.365591397849486555e+01
1.935483870967766151e+01
1.505376344086045926e+01
1.505376344086045926e+01
6.451612903226050300e+00
6.451612903226050300e+00
2.150537634408846710e+00
-6.451612903225561801e+00
-6.451612903225561801e+00
-1.075268817204276495e+01
-1.075268817204276495e+01
-1.935483870967717479e+01
-2.365591397849437882e+01
-2.365591397849437882e+01
-3.655913978494599093e+01
-2.795698924731158286e+01
-2.795698924731158286e+01
-2.795698924731158286e+01
-2.795698924731158286e+01
-2.795698924731158286e+01
-3.655913978494599093e+01
-3.655913978494599093e+01
-3.655913978494599093e+01
-3.655913978494599093e+01
-3.655913978494599093e+01
-3.655913978494599093e+01
-3.225806451612878334e+01
-3.655913978494599093e+01
-3.225806451612878334e+01
-3.225806451612878334e+01
-3.225806451612878334e+01
-3.225806451612878334e+01
-3.225806451612878334e+01
-4.086021505376319141e+01
-4.086021505376319141e+01
-4.086021505376319141e+01
-4.516129032258039899e+01
-4.086021505376319141e+01
-4.516129032258039899e+01
-4.946236559139759947e+01
-4.946236559139759947e+01
-4.946236559139759947e+01
-5.376344086021480706e+01
-4.946236559139759947e+01
-5.376344086021480706e+01
-5.376344086021480706e+01
-5.376344086021480706e+01
-6.236559139784921513e+01
-5.806451612903200754e+01
-6.236559139784921513e+01
-5.806451612903200754e+01
-6.666666666666641561e+01
-6.666666666666641561e+01
-6.666666666666641561e+01
-7.096774193548361609e+01
-6.666666666666641561e+01
-6.666666666666641561e+01
-6.236559139784921513e+01
-6.666666666666641561e+01
-6.666666666666641561e+01
-6.666666666666641561e+01
-6.666666666666641561e+01
-6.666666666666641561e+01
-6.666666666666641561e+01
-6.666666666666641561e+01
-6.666666666666641561e+01
-6.666666666666641561e+01
-6.666666666666641561e+01
-6.666666666666641561e+01
-6.236559139784921513e+01
-5.806451612903200754e+01
-6.236559139784921513e+01
-6.666666666666641561e+01
-7.096774193548361609e+01
-7.096774193548361609e+01
-7.096774193548361609e+01
-6.666666666666641561e+01
-6.236559139784921513e+01
-6.666666666666641561e+01
-6.236559139784921513e+01
-5.806451612903200754e+01
-6.236559139784921513e+01
-5.806451612903200754e+01
-5.376344086021480706e+01
-5.806451612903200754e+01
-6.236559139784921513e+01
-6.666666666666641561e+01
-6.666666666666641561e+01
-7.096774193548361609e+01
-6.236559139784921513e+01
-6.236559139784921513e+01
-6.236559139784921513e+01
-5.376344086021480706e+01
-4.946236559139759947e+01
-5.376344086021480706e+01
-4.946236559139759947e+01
-3.655913978494599093e+01
-3.225806451612878334e+01
-2.795698924731158286e+01
-1.075268817204276495e+01
-1.075268817204276495e+01
-2.150537634408357324e+00
2.150537634408846710e+00
-1.505376344085996898e+01
-3.225806451612878334e+01
-4.086021505376319141e+01
-3.225806451612878334e+01
-2.795698924731158286e+01
-3.225806451612878334e+01
-3.655913978494599093e+01
-4.946236559139759947e+01
-6.236559139784921513e+01
-6.236559139784921513e+01
-7.096774193548361609e+01
-7.096774193548361609e+01
-6.236559139784921513e+01
-5.806451612903200754e+01
-5.806451612903200754e+01
-5.376344086021480706e+01
-5.376344086021480706e+01
-5.806451612903200754e+01
-6.236559139784921513e+01
-7.096774193548361609e+01
-6.666666666666641561e+01
-6.666666666666641561e+01
-6.666666666666641561e+01
-8.387096774193523174e+01
-9.247311827956964692e+01
-4.086021505376319141e+01
1.505376344086045926e+01
1.096774193548389462e+02
2.430107526881722606e+02
4.279569892473120376e+02
5.655913978494626235e+02
6.430107526881722606e+02
4.795698924731185002e+02
1.311827956989249628e+02
-1.612903225806448972e+02
-3.548387096774191036e+02
-3.634408602150534762e+02
-2.817204301075266244e+02
-1.999999999999997442e+02
-1.612903225806448972e+02
-1.053763440860212484e+02
-7.096774193548361609e+01
-5.376344086021480706e+01
-4.086021505376319141e+01
-4.516129032258039899e+01
-4.086021505376319141e+01
-3.655913978494599093e+01
-3.225806451612878334e+01
-3.655913978494599093e+01
-3.655913978494599093e+01
-3.655913978494599093e+01
-3.225806451612878334e+01
-3.225806451612878334e+01
-3.655913978494599093e+01
-2.365591397849437882e+01
-2.365591397849437882e+01
-2.795698924731158286e+01
-2.365591397849437882e+01
-2.365591397849437882e+01
-2.795698924731158286e+01
-1.935483870967717479e+01
-1.505376344085996898e+01
-1.505376344085996898e+01
-1.505376344085996898e+01
-1.505376344085996898e+01
-1.505376344085996898e+01
-1.505376344085996898e+01
-1.505376344085996898e+01
-1.075268817204276495e+01
-1.075268817204276495e+01
-1.935483870967717479e+01
-6.451612903225561801e+00
-6.451612903225561801e+00
-2.150537634408357324e+00
2.150537634408846710e+00
2.150537634408846710e+00
2.150537634408846710e+00
1.075268817204325522e+01
1.075268817204325522e+01
1.075268817204325522e+01
1.505376344086045926e+01
1.935483870967766151e+01
1.505376344086045926e+01
1.935483870967766151e+01
1.505376344086045926e+01
1.075268817204325522e+01
1.075268817204325522e+01
1.075268817204325522e+01
1.075268817204325522e+01
1.505376344086045926e+01
1.505376344086045926e+01
1.505376344086045926e+01
1.075268817204325522e+01
1.075268817204325522e+01
1.075268817204325522e+01
2.150537634408846710e+00
2.150537634408846710e+00
-6.451612903225561801e+00
-1.075268817204276495e+01
-1.075268817204276495e+01
-1.505376344085996898e+01
-1.505376344085996898e+01
-1.935483870967717479e+01
-2.365591397849437882e+01
-2.795698924731158286e+01
-3.225806451612878334e+01
-3.655913978494599093e+01
-3.655913978494599093e+01
-4.086021505376319141e+01
-4.516129032258039899e+01
-4.946236559139759947e+01
-4.946236559139759947e+01
-4.946236559139759947e+01
-4.946236559139759947e+01
-5.376344086021480706e+01
-5.376344086021480706e+01
-5.376344086021480706e+01
-5.376344086021480706e+01
-5.376344086021480706e+01
-4.946236559139759947e+01
-5.376344086021480706e+01
-4.946236559139759947e+01
-4.516129032258039899e+01
-4.516129032258039899e+01
-4.516129032258039899e+01
-4.086021505376319141e+01
-4.516129032258039899e+01
-4.516129032258039899e+01
-4.086021505376319141e+01
-4.086021505376319141e+01
-4.086021505376319141e+01
-3.225806451612878334e+01
-3.655913978494599093e+01
-3.655913978494599093e+01
-3.225806451612878334e+01
-4.086021505376319141e+01
-4.086021505376319141e+01
-4.086021505376319141e+01
-4.516129032258039899e+01
-4.516129032258039899e+01
-4.516129032258039899e+01
-4.086021505376319141e+01
-4.516129032258039899e+01
-4.516129032258039899e+01
-4.516129032258039899e+01
-4.946236559139759947e+01
-4.946236559139759947e+01
-4.946236559139759947e+01
-4.946236559139759947e+01
-5.376344086021480706e+01
-5.376344086021480706e+01
-4.946236559139759947e+01
-5.376344086021480706e+01
-4.516129032258039899e+01
-4.946236559139759947e+01
-5.376344086021480706e+01
-5.376344086021480706e+01
-4.946236559139759947e+01
-4.946236559139759947e+01
-5.376344086021480706e+01
-4.946236559139759947e+01
-5.376344086021480706e+01
-5.806451612903200754e+01
-5.376344086021480706e+01
-5.376344086021480706e+01
-5.376344086021480706e+01
-4.946236559139759947e+01
-4.946236559139759947e+01
-4.946236559139759947e+01
-4.946236559139759947e+01
